Time [s],Voltage [V]
0.000000000000000000e+00,1.757479610282335243e-04
9.771266672760248184e-02,1.844677344527241233e-04
1.975886668078601360e-01,1.921177012074475792e-04
2.980016666697338223e-01,1.993195378954124497e-04
3.974306667223572731e-01,2.061154690508109830e-04
4.975423334399238229e-01,2.127496641931499481e-04
5.973600000143051147e-01,2.191772944785258526e-04
6.974996668286621571e-01,2.254590797088189833e-04
7.976700001163408160e-01,2.315763171303744173e-04
8.981836667517200112e-01,2.375730921661559298e-04
9.977220001164823771e-01,2.434073464246446763e-04
1.097401000093668699e+00,2.491288061348962942e-04
1.197406000108458102e+00,2.547472580897951330e-04
1.297605333384126425e+00,2.602772726120625374e-04
1.397708000033162534e+00,2.657218616384485373e-04
1.497674666694365442e+00,2.710590127322943122e-04
1.598192000063136220e+00,2.763247630898124684e-04
1.697766666766256094e+00,2.814641904599385520e-04
1.798204333405010402e+00,2.865895614866760185e-04
1.897915666806511581e+00,2.915997085693410300e-04
1.998198000132106245e+00,2.965600009427911670e-04
2.097615333506837487e+00,3.014148811741653843e-04
2.197620333405211568e+00,3.062484010674056990e-04
2.297747333417646587e+00,3.110239557459695695e-04
2.397564333514310420e+00,3.157211206921287441e-04
2.497543666744604707e+00,3.203688293644523519e-04
2.597710666828788817e+00,3.249767381962303126e-04
2.697543666814453900e+00,3.295179776663072690e-04
2.797924000187776983e+00,3.340347473064453300e-04
2.897772333351895213e+00,3.384806716355538659e-04
2.998211666825227439e+00,3.429079137477455876e-04
3.097722000093199313e+00,3.472519731798724349e-04
3.197954000090248883e+00,3.515872846297556304e-04
3.297720666741952300e+00,3.558645839314552792e-04
3.397898666793480515e+00,3.601237320386695443e-04
3.497761333361268044e+00,3.643360187739802438e-04
3.598066333332099020e+00,3.685355906865988304e-04
3.697992333443835378e+00,3.726857902142391909e-04
3.797489000135101378e+00,3.767834052254963881e-04
3.898116000113077462e+00,3.808983239551728657e-04
3.997758333454839885e+00,3.849456742713278264e-04
4.097431333386339247e+00,3.889687623051964584e-04
4.197992333443835378e+00,3.930035341208993694e-04
4.297819000086747110e+00,3.969865273979801025e-04
4.397726000053808093e+00,4.009521481334883241e-04
4.497647666838020086e+00,4.048927868348431696e-04
4.598045000107958913e+00,4.088226837886477574e-04
4.697769333375617862e+00,4.127046947311270760e-04
4.797975000110454857e+00,4.165848682278147381e-04
4.898009000113233924e+00,4.204388731073213344e-04
4.998211000114679337e+00,4.242808499442345376e-04
5.098215666715987027e+00,4.280978493770919938e-04
5.198159666731953621e+00,4.318962030192535079e-04
5.297767000040039420e+00,4.356612953757781461e-04
5.398080000071786344e+00,4.394290815394821673e-04
5.498191333492286503e+00,4.431712351775915016e-04
5.597400666796602309e+00,4.468624094393152616e-04
5.697792333434335887e+00,4.505806217212584728e-04
5.797388333361595869e+00,4.542530518765303636e-04
5.897841666708700359e+00,4.579411803244307468e-04
5.998187333461828530e+00,4.616099443436025339e-04
6.097852666745893657e+00,4.652376785241642276e-04
6.197882666718214750e+00,4.688617965147776328e-04
6.298367000068537891e+00,4.724872573466463305e-04
6.397450333344750106e+00,4.760477282977583144e-04
6.497686666785739362e+00,4.796354384040219182e-04
6.597995666670612991e+00,4.832118604508910857e-04
6.698000666801817715e+00,4.867640138462993142e-04
6.798187333508394659e+00,4.903095754822176227e-04
6.897822000086307526e+00,4.938218414110689394e-04
6.997269000043161213e+00,4.973131378453901456e-04
7.097899666754528880e+00,5.008329675718660445e-04
7.197691000066697598e+00,5.043107843408798979e-04
7.297894333372823894e+00,5.077905612203545199e-04
7.398175666807219386e+00,5.112608905955134952e-04
7.497308666817843914e+00,5.146798048992785044e-04
7.597540000104345381e+00,5.181250763455201060e-04
7.697601333376951516e+00,5.215532285767889107e-04
7.797347000101581216e+00,5.249596325702346640e-04
7.897514000069350004e+00,5.283697210128584631e-04
7.997517000068910420e+00,5.317638062643399981e-04
8.097605000017210841e+00,5.351506328547282277e-04
8.197626333450898528e+00,5.385253467021241343e-04
8.298163666739128530e+00,5.419078238629137633e-04
8.398183333454653621e+00,5.452635698420566120e-04
8.497723666718229651e+00,5.485931772442199494e-04
8.597319000051356852e+00,5.519141156863084348e-04
8.697841000044718385e+00,5.552568822880981150e-04
8.797999333357438445e+00,5.585787352178948157e-04
8.897621666779741645e+00,5.618743183103078751e-04
8.997538666706532240e+00,5.651713823265385383e-04
9.097625333350151777e+00,5.684659865619871464e-04
9.197464666794985533e+00,5.717446550043412453e-04
9.298200000077486038e+00,5.750451027562180793e-04
9.397800666745752096e+00,5.783010664673637630e-04
9.497872333507984877e+00,5.815653506163928317e-04
9.597822000039741397e+00,5.848188162337028843e-04
9.698137666797265410e+00,5.880775663484815678e-04
9.798200000193901360e+00,5.913217134605317686e-04
9.897699666791595519e+00,5.945415463561214489e-04
9.997502666781656444e+00,5.977653527380027542e-04
1.009740300010889769e+01,6.009826829931867601e-04
1.019774666673038155e+01,6.042019597074742548e-04
1.029790366673842072e+01,6.074081818402407096e-04
1.039831900002900511e+01,6.106157219662262849e-04
1.049749733344651759e+01,6.137770483326702520e-04
1.059770300018135458e+01,6.169644914925711534e-04
1.069764900009613484e+01,6.201371702212552656e-04
1.079744466673582792e+01,6.232987282092192650e-04
1.089765466679818928e+01,6.264671628109051834e-04
1.099769600003492087e+01,6.296241515083690708e-04
1.109781466668937355e+01,6.327775995885609331e-04
1.119810933340340853e+01,6.359307264155441902e-04
1.129827433347236365e+01,6.390740524638935816e-04
1.139813866675831378e+01,6.422023818170990170e-04
1.149792033340781927e+01,6.453227083818339170e-04
1.159817333344835788e+01,6.484524587300524159e-04
1.169814300013240427e+01,6.515656847632853542e-04
1.179789533349685371e+01,6.546627925818960300e-04
1.189761000010184944e+01,6.577526754729671110e-04
1.199780800007283688e+01,6.608515024621905128e-04
1.209772400010842830e+01,6.639356511222781025e-04
1.219800266681704670e+01,6.670250790558258144e-04
1.229742800013627857e+01,6.700824312778442876e-04
1.239768833341076970e+01,6.731596913933296294e-04
1.249769300012849271e+01,6.762233991995423394e-04
1.259773966681677848e+01,6.792827575962707845e-04
1.269758933340199292e+01,6.823305363604974466e-04
1.279777633340563625e+01,6.853830990444112568e-04
1.289765533350873739e+01,6.884208460152931117e-04
1.299792433343827724e+01,6.914650653278674045e-04
1.309794233343563974e+01,6.944963501298103033e-04
1.319858266680967063e+01,6.975412053706366022e-04
1.329842933337204158e+01,7.005557836765046072e-04
1.339806766679976135e+01,7.035570763142204049e-04
1.349797133344691247e+01,7.065608128078027916e-04
1.359825000003911555e+01,7.095702724006670977e-04
1.369851233344525099e+01,7.125737165391287948e-04
1.379799166671000421e+01,7.155482800247594437e-04
1.389799700002186000e+01,7.185331598999105188e-04
1.399833433341700584e+01,7.215225314757512613e-04
1.409824700013268739e+01,7.244938940531122414e-04
1.419780933333095163e+01,7.274495555054236911e-04
1.429764700005762279e+01,7.304081307444369687e-04
1.439809433335904032e+01,7.333794927179600057e-04
1.449783733335789293e+01,7.363248143044825739e-04
1.459796300006564707e+01,7.392762541763447676e-04
1.469781033345498145e+01,7.422143549052782809e-04
1.479796133341733366e+01,7.451562757853776812e-04
1.489773666672408581e+01,7.480817534785653977e-04
1.499793700012378395e+01,7.510139870486507406e-04
1.509817066672258079e+01,7.539419958219995650e-04
1.519775166676845402e+01,7.568458136997873679e-04
1.529744033340830356e+01,7.597476793448368565e-04
1.539779733342584223e+01,7.626638790732473677e-04
1.549741566681768745e+01,7.655535584033211754e-04
1.559770133334677666e+01,7.684575326396143316e-04
1.569789566681720316e+01,7.713538147746792700e-04
1.579766533349175006e+01,7.742328333772959068e-04
1.589769833337049931e+01,7.771144791491606425e-04
1.599766700004693121e+01,7.799893233949419316e-04
1.609749333339277655e+01,7.828551635221300256e-04
1.619729066675063223e+01,7.857152908807955600e-04
1.629749800008721650e+01,7.885822842231156576e-04
1.639774600008968264e+01,7.914455691019499145e-04
1.649760500015690923e+01,7.942928637167475823e-04
1.659780700004193932e+01,7.971450053224210779e-04
1.669788233342114836e+01,7.999887183673397469e-04
1.679815333336591721e+01,8.028331787401508024e-04
1.689804833335801959e+01,8.056622038135557258e-04
1.699801633344031870e+01,8.084885520621132565e-04
1.709739300014916807e+01,8.112934986499172963e-04
1.719782600004691631e+01,8.141235375592084482e-04
1.729774566681589931e+01,8.169344205152855249e-04
1.739804600004572421e+01,8.197513270104416936e-04
1.749777200014796108e+01,8.225474700299446234e-04
1.759806933347135782e+01,8.253549925882989200e-04
1.769755866669584066e+01,8.281353207175358878e-04
1.779795900010503829e+01,8.309365064881061224e-04
1.789737366675399244e+01,8.337056573179724194e-04
1.799790233338717371e+01,8.365012694471538448e-04
1.809768566675484180e+01,8.392716308359687979e-04
1.819740200007800013e+01,8.420356489797523004e-04
1.829780800011940300e+01,8.448142749839499368e-04
1.839818500017281622e+01,8.475875952189460862e-04
1.849776033347006887e+01,8.503343362354918219e-04
1.859756766678765416e+01,8.530830679130594306e-04
1.869791866675950587e+01,8.558423408327357285e-04
1.879807133344002068e+01,8.585917484795726118e-04
1.889728800009470433e+01,8.613111330976820938e-04
1.899781000008806586e+01,8.640619203765220182e-04
1.909807200008071959e+01,8.668012247377911454e-04
1.919747733336407691e+01,8.695128348576359502e-04
1.929818633338436484e+01,8.722556698651674073e-04
1.939797833340708166e+01,8.749692419663153290e-04
1.949827733344864100e+01,8.776923169375916347e-04
1.959763633343391120e+01,8.803856541317907477e-04
1.969758866669144481e+01,8.830906198261414793e-04
1.979786566668190062e+01,8.857996580666015847e-04
1.989800666680093855e+01,8.885007122029288688e-04
1.999758400011342019e+01,8.911823027941283325e-04
2.009772533341310918e+01,8.938748080673860220e-04
2.019750366674270481e+01,8.965533010085271516e-04
2.029798966669477522e+01,8.992465109454761711e-04
2.039815566677134484e+01,9.019268793960587369e-04
2.049817900010384619e+01,9.045991904945488091e-04
2.059810933342669159e+01,9.072647951269280234e-04
2.069765366672072560e+01,9.099159165325366788e-04
2.079767700005322695e+01,9.125755943520269010e-04
2.089795866666827351e+01,9.152379225017058355e-04
2.099785933340899646e+01,9.178859431452289193e-04
2.109788400016259402e+01,9.205330657186359001e-04
2.119799166673328727e+01,9.231781993359811827e-04
2.129783966671675444e+01,9.258123076733706458e-04
2.139798666676506400e+01,9.284501331168015879e-04
2.149801233340986073e+01,9.310805994311989421e-04
2.159813700011000037e+01,9.337095082814446173e-04
2.169816866680048406e+01,9.363318237201910055e-04
2.179781466675922275e+01,9.389399085930065676e-04
2.189793300011660904e+01,9.415562194173912342e-04
2.199802400008775294e+01,9.441676759458410631e-04
2.209756866679526865e+01,9.467607769653148351e-04
2.219782566674984992e+01,9.493683041179751822e-04
2.229799066670238972e+01,9.519693034289758394e-04
2.239826000016182661e+01,9.545688758970987059e-04
2.249826600006781518e+01,9.571575024768622401e-04
2.259826166671700776e+01,9.597417518180522160e-04
2.269742033339571208e+01,9.623003145225061559e-04
2.279740333347581327e+01,9.648760605645437596e-04
2.289752433344256133e+01,9.674517778690872082e-04
2.299765133333858103e+01,9.700246704830188180e-04
2.309749266679864377e+01,9.725863209436892698e-04
2.319734666671138257e+01,9.751444107659066945e-04
2.329740300017874688e+01,9.777037974173126422e-04
2.339730300009250641e+01,9.802553146894582743e-04
2.349761933344416320e+01,9.828135847528827497e-04
2.359790633339434862e+01,9.853672306455575711e-04
2.369811666675377637e+01,9.879150640769748630e-04
2.379739700013305992e+01,9.904354577029493394e-04
2.389784400013741106e+01,9.929816358471383816e-04
2.399740400013979524e+01,9.955015356312645839e-04
2.409743766672909260e+01,9.980296300517608674e-04
2.419770866679027677e+01,1.000559916252804788e-03
2.429768100008368492e+01,1.003078882307065645e-03
2.439811566681601107e+01,1.005605703808899309e-03
2.449791100004222244e+01,1.008112684170772363e-03
2.459775200008880347e+01,1.010617074888938045e-03
2.469743666681461036e+01,1.013113825081699525e-03
2.479789700009860098e+01,1.015626253209338638e-03
2.489799133338965476e+01,1.018125794007822098e-03
2.499764433340169489e+01,1.020610620972129106e-03
2.509771333343815058e+01,1.023102122507472608e-03
2.519794933334924281e+01,1.025594076221058660e-03
2.529766066675074399e+01,1.028069315876929592e-03
2.539776100008748472e+01,1.030550539206712135e-03
2.549749133340083063e+01,1.033018940756293743e-03
2.559760666673537344e+01,1.035493215690478676e-03
2.569776766677387059e+01,1.037964963140979675e-03
2.579760366678237915e+01,1.040425060151724517e-03
2.589756866672541946e+01,1.042884713496390007e-03
2.599773266678676009e+01,1.045345636542405199e-03
2.609767266665585339e+01,1.047797512767892000e-03
2.619782400003168732e+01,1.050251117728942139e-03
2.629745633341372013e+01,1.052688456537134026e-03
2.639777433348353952e+01,1.055139000161670233e-03
2.649763133341912180e+01,1.057574735750570639e-03
2.659760600014124066e+01,1.060009806145901547e-03
2.669790333334822208e+01,1.062449190680572926e-03
2.679757400008384138e+01,1.064869825646092266e-03
2.689805866673123091e+01,1.067306699109232381e-03
2.699827033339533955e+01,1.069733430903985682e-03
2.709847433341201395e+01,1.072156470494748520e-03
2.719803433341439813e+01,1.074560473967868437e-03
2.729823833343107253e+01,1.076976550903227655e-03
2.739813333342317492e+01,1.079381714617522626e-03
2.749842900002840906e+01,1.081793056020330032e-03
2.759822066675405949e+01,1.084188839150320013e-03
2.769805533345788717e+01,1.086582229018433774e-03
2.779825866676401347e+01,1.088981020672580985e-03
2.789751066674944013e+01,1.091353652913952489e-03
2.799788300017826259e+01,1.093749649308094034e-03
2.809784433338791132e+01,1.096132427704619430e-03
2.819789166678674519e+01,1.098513860358474098e-03
2.829813266673590988e+01,1.100896504421254628e-03
2.839742033346556127e+01,1.103253143617712560e-03
2.849814733339007944e+01,1.105640552888083588e-03
2.859804133337456733e+01,1.108004851672539023e-03
2.869739966676570475e+01,1.110353154505864387e-03
2.879777333338279277e+01,1.112722102978212346e-03
2.889787433343008161e+01,1.115081269640913518e-03
2.899785433337092400e+01,1.117434256843366936e-03
2.909793166676536202e+01,1.119786212265615893e-03
2.919788366684224457e+01,1.122131912360608890e-03
2.929773500014562160e+01,1.124471986770985386e-03
2.939767433342058212e+01,1.126810912414666181e-03
2.949777000001631677e+01,1.129150218217836801e-03
2.959766400011721998e+01,1.131481548100714708e-03
2.969810366677120328e+01,1.133822334897758438e-03
2.979777800012379885e+01,1.136142044261227203e-03
2.989770333340857178e+01,1.138464362521970398e-03
2.999762766680214554e+01,1.140783429130305541e-03
3.009784600010607392e+01,1.143106084496543513e-03
3.019785966677591205e+01,1.145420775367943971e-03
3.029807466675993055e+01,1.147736906385517100e-03
3.039798300003167242e+01,1.150042749953640413e-03
3.049741633341182023e+01,1.152334466389906813e-03
3.059766666672658175e+01,1.154641824986699702e-03
3.069818333338480443e+01,1.156952107798433528e-03
3.079794233338907361e+01,1.159241810437777742e-03
3.089752100000623614e+01,1.161524236360400586e-03
3.099759700009599328e+01,1.163814910980961884e-03
3.109757099999114871e+01,1.166100104958247598e-03
3.119751466671004891e+01,1.168381470343361501e-03
3.129746666667051613e+01,1.170659898390516169e-03
3.139772800006903708e+01,1.172942243135885725e-03
3.149801266670692712e+01,1.175221986043529111e-03
3.159808233345393091e+01,1.177493725632611015e-03
3.169772466679569334e+01,1.179752678927796202e-03
3.179781633336097002e+01,1.182018726847844890e-03
3.189756833342835307e+01,1.184274008866775720e-03
3.199805166677106172e+01,1.186542728283202907e-03
3.209793000016361475e+01,1.188794714680477954e-03
3.219795800012070686e+01,1.191047011948030872e-03
3.229778066673316061e+01,1.193291636341940699e-03
3.239779733342584223e+01,1.195537574925284018e-03
3.249787066678982228e+01,1.197781768275985124e-03
3.259794233343563974e+01,1.200022961681443271e-03
3.269746766681782901e+01,1.202248922693632382e-03
3.279738033341709524e+01,1.204480548125656369e-03
3.289771933341398835e+01,1.206718679860849328e-03
3.299808666680473834e+01,1.208954427207599956e-03
3.309789500012993813e+01,1.211174738207654701e-03
3.319757733342703432e+01,1.213389283260985895e-03
3.329771566682029516e+01,1.215610984677800233e-03
3.339824400003999472e+01,1.217838347743757568e-03
3.349778366682585329e+01,1.220040859814396257e-03
3.359793833340518177e+01,1.222254028990680391e-03
3.369787866680417210e+01,1.224459518531364338e-03
3.379774466669186950e+01,1.226660437829349025e-03
3.389766433346085250e+01,1.228859615848559329e-03
3.399820666678715497e+01,1.231069553348907927e-03
3.409775066678412259e+01,1.233254643956254457e-03
3.419799733336549252e+01,1.235452246289165225e-03
3.429779166670050472e+01,1.237637036539416873e-03
3.439824000012595206e+01,1.239833233776555053e-03
3.449832866678480059e+01,1.242018669376516136e-03
3.459759933338500559e+01,1.244183393396221032e-03
3.469748400012031198e+01,1.246358647999844683e-03
3.479771466669626534e+01,1.248538562265054603e-03
3.489742166677024215e+01,1.250704236207481578e-03
3.499769866676069796e+01,1.252879429432356790e-03
3.509738633339293301e+01,1.255039001344560425e-03
3.519817066669929773e+01,1.257219461421353775e-03
3.529766266676597297e+01,1.259369138788105774e-03
3.539754933340009302e+01,1.261524528397495442e-03
3.549753666680771858e+01,1.263679271784086964e-03
3.559823633346240968e+01,1.265846522588313060e-03
3.569740700011607260e+01,1.267978083871007912e-03
3.579790866677649319e+01,1.270135442914776397e-03
3.589789933338761330e+01,1.272279031521811278e-03
3.599794966680929065e+01,1.274421108923496932e-03
3.609761500009335577e+01,1.276552174692962812e-03
3.619744533346965909e+01,1.278684004483861183e-03
3.629732966667506844e+01,1.280814225072840918e-03
3.639762133336625993e+01,1.282950359048995112e-03
3.649747300008311868e+01,1.285074366416182100e-03
3.659736866678576916e+01,1.287196565164491595e-03
3.669749666680581868e+01,1.289320951006704642e-03
3.679786433349363506e+01,1.291447666206873342e-03
3.689808666682802141e+01,1.293568555118200687e-03
3.699763200012966990e+01,1.295672406403417529e-03
3.709811233344953507e+01,1.297793284502004848e-03
3.719770433346275240e+01,1.299892707611784246e-03
3.729787833348382264e+01,1.302001689113234904e-03
3.739825600013136864e+01,1.304112237863818986e-03
3.749773566669318825e+01,1.306201224092557551e-03
3.759799800009932369e+01,1.308303950822309152e-03
3.769837133341934532e+01,1.310406301408734847e-03
3.779771966685075313e+01,1.312484524488984842e-03
3.789816666673868895e+01,1.314583046843569416e-03
3.799782433337531984e+01,1.316662417943231366e-03
3.809813300007954240e+01,1.318752701741464925e-03
3.819815766671672463e+01,1.320834405169308591e-03
3.829759000008925796e+01,1.322901151635868166e-03
3.839755933347623795e+01,1.324976422540786927e-03
3.849765700008720160e+01,1.327051713462372180e-03
3.859794800006784499e+01,1.329128364756778117e-03
3.869796600006520748e+01,1.331196728993565585e-03
3.879764300002716482e+01,1.333255429512685605e-03
3.889841233345214278e+01,1.335334232061756617e-03
3.899783733347430825e+01,1.337383260720886435e-03
3.909786133351735771e+01,1.339442082197456673e-03
3.919764200004283339e+01,1.341493351696961944e-03
3.929812633350957185e+01,1.343556526692433464e-03
3.939767933345865458e+01,1.345598052320531954e-03
3.949751933349762112e+01,1.347642944137532935e-03
3.959766266669612378e+01,1.349691521079955962e-03
3.969758300005923957e+01,1.351733019970785153e-03
3.979763200017623603e+01,1.353774636131354920e-03
