Time [s],Voltage [V]
0.000000000000000000e+00,1.364856996312751713e-03
9.773200005292892456e-02,1.374377558522717202e-03
1.975943334400653839e-01,1.382730506843049718e-03
2.977043333230540156e-01,1.390847430398194258e-03
3.979173334082588553e-01,1.398773434416292292e-03
4.979796666884794831e-01,1.406555634847986335e-03
5.977006667526438832e-01,1.414178866685577348e-03
6.979243333917111158e-01,1.421695921478948431e-03
7.977620000019669533e-01,1.429043640557258995e-03
8.977960000047460198e-01,1.436295695800765505e-03
9.975993334082886577e-01,1.443412505835648795e-03
1.097885333350859582e+00,1.450443896661520902e-03
1.197600000072270632e+00,1.457316127542967890e-03
1.297594000119715929e+00,1.464126681505732762e-03
1.397771333344280720e+00,1.470847023725113190e-03
1.497785000014118850e+00,1.477452790261365003e-03
1.597817000001668930e+00,1.483956227719320864e-03
1.697847333387471735e+00,1.490394527761269069e-03
1.797886666725389659e+00,1.496746996820642276e-03
1.897658333415165544e+00,1.502995315324240919e-03
1.997599000111222267e+00,1.509166959335026285e-03
2.097636333433911204e+00,1.515284725151362991e-03
2.197950333356857300e+00,1.521344090079459078e-03
2.297939000069163740e+00,1.527307839499229348e-03
2.397667000070214272e+00,1.533180497254527574e-03
2.497758000041358173e+00,1.539011760984610030e-03
2.597959333332255483e+00,1.544782904126518197e-03
2.697594333323650062e+00,1.550456836181548234e-03
2.797594000119715929e+00,1.556088607587420656e-03
2.897599666612222791e+00,1.561660030585301090e-03
2.997594333370216191e+00,1.567171865231448569e-03
3.097714000032283366e+00,1.572633408280837888e-03
3.197965333354659379e+00,1.578046728936155843e-03
3.297594000003300607e+00,1.583373407951794640e-03
3.397659666719846427e+00,1.588672161848735326e-03
3.497885000077076256e+00,1.593929767169194496e-03
3.597599333385005593e+00,1.599113211458705244e-03
3.697743333410471678e+00,1.604266634785912011e-03
3.797995000029914081e+00,1.609378619005587523e-03
3.897994000115431845e+00,1.614432745380741567e-03
3.997611333383247256e+00,1.619424459878330679e-03
4.097974666743539274e+00,1.624411585228694799e-03
4.197594333323650062e+00,1.629321637512950397e-03
4.297785000060684979e+00,1.634221068986770227e-03
4.397808666690252721e+00,1.639075105475829713e-03
4.497829666710458696e+00,1.643883909062667653e-03
4.597671000054106116e+00,1.648646064839929138e-03
4.697594333323650062e+00,1.653375727051125581e-03
4.797594333416782320e+00,1.658073707388178991e-03
4.897594333393499255e+00,1.662737515358393616e-03
4.997594333370216191e+00,1.667368303179172324e-03
5.097595666768029332e+00,1.671967284178383197e-03
5.197748333332128823e+00,1.676542439161319339e-03
5.297901000012643635e+00,1.681080075589513976e-03
5.397855999995954335e+00,1.685576939644510899e-03
5.497657333384267986e+00,1.690036433963184627e-03
5.597815666696988046e+00,1.694482105347076741e-03
5.697594333323650062e+00,1.698882083692623227e-03
5.798027666634880006e+00,1.703282687016351767e-03
5.897594333393499255e+00,1.707618162030886261e-03
5.997594333370216191e+00,1.711946111277942804e-03
6.097636666730977595e+00,1.716246155803763601e-03
6.197638333309441805e+00,1.720517818132778938e-03
6.297635666676796973e+00,1.724763573869867459e-03
6.397843000013381243e+00,1.728993092701846916e-03
6.497929000062867999e+00,1.733193004910883392e-03
6.597594333346933126e+00,1.737351591420264801e-03
6.697973333415575325e+00,1.741516727518533725e-03
6.797594333416782320e+00,1.745628006256723808e-03
6.897598666604608297e+00,1.749728832859130927e-03
6.997872666688635945e+00,1.753817398973056595e-03
7.097597000072710216e+00,1.757861157026345805e-03
7.197616000077687204e+00,1.761894883952279823e-03
7.297649000072851777e+00,1.765907613023635480e-03
7.398006333271041512e+00,1.769912140905406921e-03
7.497621333342976868e+00,1.773866489521071493e-03
7.597691333387047052e+00,1.777818731543561208e-03
7.697723333374597132e+00,1.781749724171083783e-03
7.797971999971196055e+00,1.785669878806658232e-03
7.897593999980017543e+00,1.789546788170317138e-03
7.997594333370216191e+00,1.793420086392923845e-03
8.097963333362713456e+00,1.797289650058345786e-03
8.197594000026583672e+00,1.801113352561717687e-03
8.297594333416782320e+00,1.804934267622138652e-03
8.397594333393499255e+00,1.808738617559293039e-03
8.498029333422891796e+00,1.812540435693850644e-03
8.597830666694790125e+00,1.816301748641366981e-03
8.697868666728027165e+00,1.820056117685843293e-03
8.797887333319522440e+00,1.823794293182642769e-03
8.897763000102713704e+00,1.827512099559432199e-03
8.998015666613355279e+00,1.831229251713489652e-03
9.098028999986127019e+00,1.834923277509203140e-03
9.197792666731402278e+00,1.838594307901465861e-03
9.298031666781753302e+00,1.842269384734134853e-03
9.397686999989673495e+00,1.845910111020737611e-03
9.497856666799634695e+00,1.849557023769643743e-03
9.597677999990992248e+00,1.853179092605178454e-03
9.697594333440065384e+00,1.856792859017728382e-03
9.797596666612662375e+00,1.860398374633922712e-03
9.898006333387456834e+00,1.864007553315801804e-03
9.997862333315424621e+00,1.867586286348631944e-03
1.009766333329025656e+01,1.871141088071952719e-03
1.019773500005248934e+01,1.874692204191741492e-03
1.029785533330868930e+01,1.878233157923569607e-03
1.039797333336900920e+01,1.881762405657001411e-03
1.049762800009921193e+01,1.885264043814771032e-03
1.059777733334340155e+01,1.888771996511674637e-03
1.069780833332333714e+01,1.892264997276787031e-03
1.079768099996726960e+01,1.895741961157499777e-03
1.089800433337222785e+01,1.899224312437990765e-03
1.099803633335977793e+01,1.902686539006191030e-03
1.109768366673961282e+01,1.906125777869566770e-03
1.119777666672598571e+01,1.909570945482785137e-03
1.129777833330444992e+01,1.913003775604184102e-03
1.139793866674881428e+01,1.916433109196363695e-03
1.149767800001427531e+01,1.919839400976914873e-03
1.159801499999593943e+01,1.923257686096861230e-03
1.169775233336258680e+01,1.926638809349094737e-03
1.179777066665701568e+01,1.930018866383768038e-03
1.189772266673389822e+01,1.933387225194099866e-03
1.199759433337021619e+01,1.936743596877326746e-03
1.209759533335454762e+01,1.940095183176611220e-03
1.219760833331383765e+01,1.943438194740100154e-03
1.229797933332156390e+01,1.946784310669219097e-03
1.239763899997342378e+01,1.950098090825347829e-03
1.249760366673581302e+01,1.953413544164728233e-03
1.259792833332903683e+01,1.956732573443194928e-03
1.269782866677269340e+01,1.960029401358016985e-03
1.279760000004898757e+01,1.963314003880635688e-03
1.289763500005938113e+01,1.966599454247085991e-03
1.299782966671045870e+01,1.969882450050624862e-03
1.309765533334575593e+01,1.973145855306223783e-03
1.319787366676609963e+01,1.976414730080166150e-03
1.329792666668072343e+01,1.979666092357304681e-03
1.339796666672918946e+01,1.982908345301588778e-03
1.349791100004222244e+01,1.986139557490724638e-03
1.359791466663591564e+01,1.989364846355401104e-03
1.369790833338629454e+01,1.992582071912284841e-03
1.379792233335319906e+01,1.995792310886929186e-03
1.389801999996416271e+01,1.998997686378527552e-03
1.399759833340067416e+01,2.002179039303479506e-03
1.409784200007561594e+01,2.005374303483034148e-03
1.419759466662071645e+01,2.008546703232434900e-03
1.429777366667985916e+01,2.011725521382888050e-03
1.439803466666489840e+01,2.014899879869641239e-03
1.449786166660487652e+01,2.018053580700923666e-03
1.459763999993447214e+01,2.021198948807020890e-03
1.469759966665878892e+01,2.024343322683383548e-03
1.479792533337604254e+01,2.027492558540134812e-03
1.489780966669786721e+01,2.030619669482779978e-03
1.499782100005540997e+01,2.033743636471042286e-03
1.509793599997647107e+01,2.036864009428483377e-03
1.519796366675291210e+01,2.039974888264089407e-03
1.529779200011398643e+01,2.043072871462606882e-03
1.539782433339860290e+01,2.046170526164935340e-03
1.549797333334572613e+01,2.049265165203366813e-03
1.559759433346334845e+01,2.052336956036579854e-03
1.569759433344006538e+01,2.055413925908448729e-03
1.579773900005966425e+01,2.058488857123321782e-03
1.589759399998001754e+01,2.061548469529625970e-03
1.599761399999260902e+01,2.064606746573530941e-03
1.609761266666464508e+01,2.067658015405370118e-03
1.619793433335144073e+01,2.070712790720631493e-03
1.629759400011971593e+01,2.073741146262093188e-03
1.639759433339349926e+01,2.076773613253849685e-03
1.649759433337021619e+01,2.079800158165762743e-03
1.659790066664572805e+01,2.082829887296002314e-03
1.669759433332365006e+01,2.085835057165398576e-03
1.679774600011296570e+01,2.088847990413966998e-03
1.689760300004854798e+01,2.091846061980412192e-03
1.699779200006742030e+01,2.094848114746571469e-03
1.709791600005701184e+01,2.097842259058771766e-03
1.719759433344006538e+01,2.100817185116487726e-03
1.729794266680255532e+01,2.103806197379723842e-03
1.739760933339130133e+01,2.106769060956144302e-03
1.749778933334164321e+01,2.109741339293259767e-03
1.759759433334693313e+01,2.112696686397731900e-03
1.769759833335410804e+01,2.115652135444046154e-03
1.779782199999317527e+01,2.118608280392287636e-03
1.789765866671223193e+01,2.121547259856835805e-03
1.799777666665613651e+01,2.124488773880643926e-03
1.809783666662406176e+01,2.127423751855099694e-03
1.819802300003357232e+01,2.130357105449229033e-03
1.829796733334660530e+01,2.133277940404228277e-03
1.839794333337340504e+01,2.136194307504754412e-03
1.849768066674005240e+01,2.139098372819327794e-03
1.859769766661338508e+01,2.142005260162241354e-03
1.869789400009904057e+01,2.144912051174837925e-03
1.879759433341678232e+01,2.147799212544483465e-03
1.889759433339349926e+01,2.150689834162737915e-03
1.899760033341590315e+01,2.153575435993502173e-03
1.909759433334693313e+01,2.156455531319687730e-03
1.919778100005351007e+01,2.159336032887323922e-03
1.929776233341544867e+01,2.162205529826185472e-03
1.939761133340653032e+01,2.165066173646674943e-03
1.949764966673683375e+01,2.167927205769668714e-03
1.959781133336946368e+01,2.170786744687139714e-03
1.969777700002305210e+01,2.173635708238245111e-03
1.979761366662569344e+01,2.176476058623947815e-03
1.989765633328352123e+01,2.179317348887887390e-03
1.999762799998279661e+01,2.182151729544309308e-03
2.009776400006376207e+01,2.184985892928246499e-03
2.019800066668540239e+01,2.187818044312839216e-03
2.029800466669257730e+01,2.190638801100131938e-03
2.039760366675909609e+01,2.193443373672503745e-03
2.049775600002612919e+01,2.196258761638051216e-03
2.059759633336216211e+01,2.199060646660260139e-03
2.069759400002658367e+01,2.201862234792518937e-03
2.079760100005660206e+01,2.204659391142915238e-03
2.089779933332465589e+01,2.207457214953289018e-03
2.099760066671296954e+01,2.210239314952639617e-03
2.109794066671747714e+01,2.213031786149633959e-03
2.119795133336447179e+01,2.215810478810225324e-03
2.129785566672217101e+01,2.218581194842546463e-03
2.139759400009643286e+01,2.221342595784084675e-03
2.149759533337783068e+01,2.224106661820492072e-03
2.159787166665773839e+01,2.226873701745848370e-03
2.169788600003812462e+01,2.229628910347100645e-03
2.179759433341678232e+01,2.232371127649886676e-03
2.189759433339349926e+01,2.235116804280110926e-03
2.199781500000972301e+01,2.237863967507220265e-03
2.209759866667445749e+01,2.240594615821218504e-03
2.219764833338558674e+01,2.243328009432141862e-03
2.229768433340359479e+01,2.246056500412635555e-03
2.239806466677691787e+01,2.248789840012058346e-03
2.249784100009128451e+01,2.251502231399742527e-03
2.259785799996461719e+01,2.254216669064559257e-03
2.269793666666373610e+01,2.256928281841762661e-03
2.279781266662757844e+01,2.259629923746548415e-03
2.289802266668993980e+01,2.262336108716906345e-03
2.299759433337021619e+01,2.265020604446311113e-03
2.309774400002788752e+01,2.267716212516079737e-03
2.319759433344006538e+01,2.270399304139393559e-03
2.329759433341678232e+01,2.273081957835470374e-03
2.339776299998629838e+01,2.275764664718552769e-03
2.349805133335758001e+01,2.278446095241922799e-03
2.359804800001438707e+01,2.281115264437475615e-03
2.369759466673713177e+01,2.283767996303783313e-03
2.379766700009349734e+01,2.286430285599646249e-03
2.389759700000286102e+01,2.289084334983993059e-03
2.399772566673345864e+01,2.291739196177408188e-03
2.409779333334881812e+01,2.294387973217144189e-03
2.419794100010767579e+01,2.297034394619527908e-03
2.429769466677680612e+01,2.299665952753832641e-03
2.439781433332245797e+01,2.302302694969482130e-03
2.449787566671147943e+01,2.304935880168914458e-03
2.459789366670884192e+01,2.307564432304838424e-03
2.469770233333110809e+01,2.310183398347383232e-03
2.479760333336889744e+01,2.312800714920477691e-03
2.489762100006919354e+01,2.315417020311148332e-03
2.499759433337021619e+01,2.318028111956233102e-03
2.509760400000959635e+01,2.320636110342627449e-03
2.519761100003961474e+01,2.323240009354743830e-03
2.529792000004090369e+01,2.325847736341741731e-03
2.539785733341705054e+01,2.328441794772212990e-03
2.549793599999975413e+01,2.331035526686342941e-03
2.559764066676143557e+01,2.333615602186456771e-03
2.569795100006740540e+01,2.336207370365894070e-03
2.579763166664633900e+01,2.338778926350605723e-03
2.589763433334883302e+01,2.341354850884126530e-03
2.599771666678134352e+01,2.343928889313056686e-03
2.609773166663944721e+01,2.346497271224155454e-03
2.619783166667912155e+01,2.349063918350810954e-03
2.629786433337721974e+01,2.351624934325020639e-03
2.639769200002774596e+01,2.354176820937047866e-03
2.649759433337021619e+01,2.356726745040776429e-03
2.659759833337739110e+01,2.359275395496211389e-03
2.669774500012863427e+01,2.361823812810251270e-03
2.679795866669155657e+01,2.364370068942195022e-03
2.689798200002405792e+01,2.366907642001722309e-03
2.699759533337783068e+01,2.369431002731951785e-03
2.709789433341939002e+01,2.371967899166352919e-03
2.719759633333887905e+01,2.374485891968135601e-03
2.729766200005542487e+01,2.377009264805109937e-03
2.739776266680564731e+01,2.379529715170710866e-03
2.749759433337021619e+01,2.382039609978187610e-03
2.759774500003550202e+01,2.384553737326068016e-03
2.769784966669976711e+01,2.387063417537834634e-03
2.779801300005055964e+01,2.389571007318342603e-03
2.789784366672392935e+01,2.392066592159057016e-03
2.799789433332625777e+01,2.394564004718512541e-03
2.809786833333782852e+01,2.397055842500408346e-03
2.819800099998246878e+01,2.399547977170939789e-03
2.829759433341678232e+01,2.402023067803750987e-03
2.839759400009643286e+01,2.404504633526265318e-03
2.849784433341119438e+01,2.406988785717707139e-03
2.859759466676041484e+01,2.409456946709356666e-03
2.869764733337797225e+01,2.411928989460560609e-03
2.879779633332509547e+01,2.414399812416965531e-03
2.889775100001133978e+01,2.416862259234005012e-03
2.899759433337021619e+01,2.419318400462857482e-03
2.909791000001132488e+01,2.421782584230488568e-03
2.919802166672889143e+01,2.424238191701248626e-03
2.929807100002653897e+01,2.426688721004670660e-03
2.939759900001809001e+01,2.429122969545790579e-03
2.949773266667034477e+01,2.431568505644861756e-03
2.959803633333649486e+01,2.434014656730417846e-03
2.969763800001237541e+01,2.436440193429928111e-03
2.979799833334982395e+01,2.438880691794336700e-03
2.989759433339349926e+01,2.441299124904653967e-03
2.999759600008837879e+01,2.443723930012384020e-03
3.009783933334983885e+01,2.446151104594315121e-03
3.019763033336494118e+01,2.448563863686524598e-03
3.029763100005220622e+01,2.450978233450079070e-03
3.039774000004399568e+01,2.453391758322513369e-03
3.049776433338411152e+01,2.455799791402975534e-03
3.059759433346334845e+01,2.458199714142142011e-03
3.069759400002658367e+01,2.460600285463309094e-03
3.079763033345807344e+01,2.462998308920032447e-03
3.089790766674559563e+01,2.465398907443168940e-03
3.099799366667866707e+01,2.467791617155582276e-03
3.109803333331365138e+01,2.470179847095957913e-03
3.119780866673681885e+01,2.472558416881144756e-03
3.129766966670285910e+01,2.474935687334097779e-03
3.139765900000929832e+01,2.477312671434698382e-03
3.149804366671014577e+01,2.479695698097078051e-03
3.159799600008409470e+01,2.482065129079272323e-03
3.169759400002658367e+01,2.484422860360217984e-03
3.179790433344896883e+01,2.486794132404082126e-03
3.189791133336257190e+01,2.489154922708026671e-03
3.199759433337021619e+01,2.491504781911446469e-03
3.209759433334693313e+01,2.493858828159649203e-03
3.219759566674474627e+01,2.496209622034351646e-03
3.229772033332847059e+01,2.498560032456595935e-03
3.239775266672950238e+01,2.500905002202342790e-03
3.249777733336668462e+01,2.503246527868977032e-03
3.259803200000897050e+01,2.505590169075633082e-03
3.269774766673799604e+01,2.507917970794995306e-03
3.279780366679187864e+01,2.510250476827953318e-03
3.289788533339742571e+01,2.512580340394806894e-03
3.299763833335600793e+01,2.514899333849867150e-03
3.309800233331043273e+01,2.517229294621185689e-03
3.319777266669552773e+01,2.519542261616409574e-03
3.329794666671659797e+01,2.521861371235663979e-03
3.339764366671442986e+01,2.524166244844860095e-03
3.349765800009481609e+01,2.526475260047711044e-03
3.359792800003197044e+01,2.528786971498703847e-03
3.369792966672684997e+01,2.531089304788937400e-03
3.379795566666871309e+01,2.533389015264735263e-03
3.389770166669040918e+01,2.535679123646895992e-03
3.399778966663870960e+01,2.537973913138640882e-03
3.409783366671763361e+01,2.540264736924798070e-03
3.419793866679538041e+01,2.542553905604262067e-03
3.429790266673080623e+01,2.544836730332198337e-03
3.439810466673225164e+01,2.547121868373926866e-03
3.449802633340004832e+01,2.549397507642806385e-03
3.459779700008220971e+01,2.551666620294271853e-03
3.469786199997179210e+01,2.553939334562114853e-03
3.479773633333388716e+01,2.556204636620452390e-03
3.489775533345527947e+01,2.558470140893798553e-03
3.499776133347768337e+01,2.560732276391295727e-03
3.509759433334693313e+01,2.562987438761862857e-03
3.519759433344006538e+01,2.565243314890400250e-03
3.529796366672962904e+01,2.567504450717396532e-03
3.539769300003536046e+01,2.569748126324610665e-03
3.549795600003562868e+01,2.572000757379033255e-03
3.559759433334693313e+01,2.574236329431984008e-03
3.569763966673053801e+01,2.576478005661721193e-03
3.579759666672907770e+01,2.578714678682830601e-03
3.589782300009392202e+01,2.580954349345953962e-03
3.599759400007314980e+01,2.583180838267349656e-03
3.609759433334693313e+01,2.585409440312559301e-03
3.619778966670855880e+01,2.587639376778035072e-03
3.629759866674430668e+01,2.589857723684699936e-03
3.639774166664574295e+01,2.592080498905417491e-03
3.649772766663227230e+01,2.594296801639453445e-03
3.659793100005481392e+01,2.596514932034863204e-03
3.669764266675338149e+01,2.598719212943384916e-03
3.679765500000212342e+01,2.600927173813966098e-03
3.689766233344562352e+01,2.603132058431652067e-03
3.699785333336330950e+01,2.605338023477731489e-03
3.709760199999436736e+01,2.607531302391928076e-03
3.719767600006889552e+01,2.609728784772138294e-03
3.729770433343946934e+01,2.611922316464276254e-03
3.739789833337999880e+01,2.614116531313307248e-03
3.749760600004810840e+01,2.616297169585052665e-03
3.759759433334693313e+01,2.618481019507852559e-03
3.769799100002273917e+01,2.620670843766405127e-03
3.779773099999874830e+01,2.622843428295138207e-03
3.789772533345967531e+01,2.625018639031550128e-03
3.799773233337327838e+01,2.627191211620385353e-03
3.809760066668968648e+01,2.629357868288364954e-03
3.819784000003710389e+01,2.631529660449673756e-03
3.829759433341678232e+01,2.633688051095183988e-03
3.839760333334561437e+01,2.635849058578299334e-03
3.849780800007283688e+01,2.638011392532971407e-03
3.859778666670899838e+01,2.640165959052867377e-03
3.869790833338629454e+01,2.642320717726847658e-03
3.879771533340681344e+01,2.644465830204115013e-03
3.889760766667313874e+01,2.646609907213547629e-03
3.899772966676391661e+01,2.648756036862365097e-03
3.909781733329873532e+01,2.650898555516573336e-03
3.919759433332365006e+01,2.653031566315114734e-03
3.929778266663197428e+01,2.655170503223457795e-03
3.939777033333666623e+01,2.657302294983707007e-03
3.949780166673008353e+01,2.659432161059213477e-03
3.959765033330768347e+01,2.661555291638474999e-03
3.969780900003388524e+01,2.663682160366383483e-03
3.979780866671353579e+01,2.665802804780975470e-03
