Time [s],Voltage [V]
0.000000000000000000e+00,7.405546948890407702e-04
9.806766663677990437e-02,7.523678305101944583e-04
1.976163333747535944e-01,7.631220776372063183e-04
2.977086667669937015e-01,7.736076913885816348e-04
3.977766666794195771e-01,7.839051564104561982e-04
4.979086666135117412e-01,7.939369404149220107e-04
5.980203333310782909e-01,8.036797956372033255e-04
6.980530001455917954e-01,8.132916236353448115e-04
7.976390001131221652e-01,8.226970748106569647e-04
8.976913334336131811e-01,8.318898030963006599e-04
9.977183333830907941e-01,8.408442140077916193e-04
1.097926333430223167e+00,8.497055863004832846e-04
1.198001666693016887e+00,8.584179758214575918e-04
1.297617666772566736e+00,8.669485470351808061e-04
1.397703333292156458e+00,8.753768323189008421e-04
1.497690666583366692e+00,8.836387693971636684e-04
1.597790333442389965e+00,8.917592622347150604e-04
1.697854000143706799e+00,8.997272051414850844e-04
1.797854000004008412e+00,9.075406185480750388e-04
1.897965666721574962e+00,9.152620309411124309e-04
1.998047333443537354e+00,9.228576914452108924e-04
2.097614666679874063e+00,9.302876851391921444e-04
2.197804333292879164e+00,9.376366270068822251e-04
2.297860666760243475e+00,9.448846621748331967e-04
2.397891333443112671e+00,9.520239197793880451e-04
2.497980999993160367e+00,9.590566271646323079e-04
2.598035666625946760e+00,9.659761396853138891e-04
2.697980333468876779e+00,9.727930059828297999e-04
2.797617333359085023e+00,9.794924700389042761e-04
2.897715333267115057e+00,9.861268167542390408e-04
2.998079666635021567e+00,9.926845650385009850e-04
3.097894333419390023e+00,9.991152513619595311e-04
3.197993333451449871e+00,1.005475429298064143e-03
3.297701333416625857e+00,1.011724773159263912e-03
3.397716666804626584e+00,1.017909610796472863e-03
3.497873999993316829e+00,1.024029360636445271e-03
3.597633666591718793e+00,1.030050981195888447e-03
3.697802333277650177e+00,1.036024837748084418e-03
3.797614666749723256e+00,1.041908163711453058e-03
3.897707000025548041e+00,1.047741490352474590e-03
3.997830333304591477e+00,1.053512944845366598e-03
4.097901000059209764e+00,1.059220674574506537e-03
4.197932000155560672e+00,1.064868451402556891e-03
4.298055333434604108e+00,1.070443532264197476e-03
4.397614666726440191e+00,1.075920886847248157e-03
4.497673999983817339e+00,1.081365630913553536e-03
4.597725666710175574e+00,1.086751480587122782e-03
4.697709999978542328e+00,1.092077075299020599e-03
4.797745666815899312e+00,1.097350535596354568e-03
4.897808999987319112e+00,1.102572336341560520e-03
4.997614666819572449e+00,1.107729550248019680e-03
5.097620666841976345e+00,1.112847670078100570e-03
5.197614666773006320e+00,1.117917473027372002e-03
5.298120333347469568e+00,1.122959685155845017e-03
5.397800000151619315e+00,1.127910729310444699e-03
5.497978333383798599e+00,1.132840771652687904e-03
5.598059000098146498e+00,1.137721674059637058e-03
5.697691333363763988e+00,1.142538169871989973e-03
5.797709333477541804e+00,1.147332094578148521e-03
5.897847333340905607e+00,1.152091885008806309e-03
5.997773333452641964e+00,1.156803296336699621e-03
6.098037666757591069e+00,1.161493691628549558e-03
6.197614666656590998e+00,1.166116755156789992e-03
6.297672000131569803e+00,1.170721611817396226e-03
6.397769000031985343e+00,1.175288813818877115e-03
6.498009000089950860e+00,1.179827987433908123e-03
6.597929666750133038e+00,1.184319470937596729e-03
6.697988666710443795e+00,1.188785110428807953e-03
6.797999333473853767e+00,1.193217714235189327e-03
6.897699333494529128e+00,1.197606997340682194e-03
6.998084666789509356e+00,1.201997829146215883e-03
7.097631000098772347e+00,1.206324776092461502e-03
7.197631999966688454e+00,1.210645406113543395e-03
7.297889333334751427e+00,1.214943167442245411e-03
7.397958666668273509e+00,1.219196378240692104e-03
7.497669666656292975e+00,1.223406292215155951e-03
7.597730666748248041e+00,1.227603519316348459e-03
7.697896000114269555e+00,1.231778269724794796e-03
7.797700666706077754e+00,1.235911964977641324e-03
7.897780000115744770e+00,1.240031653653060010e-03
7.997810333501547575e+00,1.244124627286308932e-03
8.097919666673988104e+00,1.248196814455058978e-03
8.197667666710913181e+00,1.252231103049339378e-03
8.297835666686296463e+00,1.256256086857028597e-03
8.397863000049255788e+00,1.260246190048666497e-03
8.497977999970316887e+00,1.264215667058018588e-03
8.597791666630655527e+00,1.268149618482734310e-03
8.697841000044718385e+00,1.272069680254162699e-03
8.797914666822180152e+00,1.275967930195670303e-03
8.897928999969735742e+00,1.279841569586975770e-03
8.997849000035785139e+00,1.283689741766913918e-03
9.097903666784986854e+00,1.287521701076164808e-03
9.197935000061988831e+00,1.291331808960167245e-03
9.298002000083215535e+00,1.295122095876676286e-03
9.397654333268292248e+00,1.298874824080374895e-03
9.497742666746489704e+00,1.302623691065892594e-03
9.597978666657581925e+00,1.306358108535733004e-03
9.698002666700631380e+00,1.310065084461181119e-03
9.797615333460271358e+00,1.313737798892413745e-03
9.897714999970048666e+00,1.317409738640598627e-03
9.998023666790686548e+00,1.321070899783136380e-03
1.009804700012318790e+01,1.324703649503861059e-03
1.019806433329358697e+01,1.328318599617433820e-03
1.029806233348790556e+01,1.331915662498064142e-03
1.039761766663286835e+01,1.335480113565463891e-03
1.049768933339510113e+01,1.339046656652259897e-03
1.059762166661676019e+01,1.342592217861888343e-03
1.069776933325920254e+01,1.346129750801607679e-03
1.079785299999639392e+01,1.349649741511498979e-03
1.089795566676184535e+01,1.353155508150387203e-03
1.099802866671234369e+01,1.356645737174877204e-03
1.109787533339112997e+01,1.360114011864336277e-03
1.119790166674647480e+01,1.363574832195867548e-03
1.129807999997865409e+01,1.367026346513222114e-03
1.139762066665571183e+01,1.370432243490316872e-03
1.149770300008822232e+01,1.373842227000949406e-03
1.159775100008118898e+01,1.377236842009822975e-03
1.169774733332451433e+01,1.380615799121661172e-03
1.179794166667852551e+01,1.383987785526580782e-03
1.189803499996196479e+01,1.387342999874578708e-03
1.199802500009536743e+01,1.390681685484320730e-03
1.209761900012381375e+01,1.393994446099584752e-03
1.219773899996653199e+01,1.397312204891943202e-03
1.229782066668849438e+01,1.400616450283732103e-03
1.239790466672275215e+01,1.403908812486393855e-03
1.249794966680929065e+01,1.407188219125064203e-03
1.259763533342629671e+01,1.410444518329593503e-03
1.269765333330724388e+01,1.413700588111871208e-03
1.279773933347314596e+01,1.416948036985871085e-03
1.289791466668248177e+01,1.420187812936339828e-03
1.299806600005831569e+01,1.423416521833688938e-03
1.309768800006713718e+01,1.426618236539068220e-03
1.319774100009817630e+01,1.429824115341971329e-03
1.329773766675498337e+01,1.433018768757327206e-03
1.339784133329521865e+01,1.436196108682373258e-03
1.349786366673652083e+01,1.439359067452517828e-03
1.359800866665318608e+01,1.442515366842205601e-03
1.369772333325818181e+01,1.445647818161487335e-03
1.379794600000604987e+01,1.448786079372075403e-03
1.389770600001793355e+01,1.451899941158611967e-03
1.399773000006098300e+01,1.455012307432818021e-03
1.409800466662272811e+01,1.458122881545356958e-03
1.419804300006944686e+01,1.461216747664133286e-03
1.429770066670607775e+01,1.464289720266060031e-03
1.439800166676286608e+01,1.467373531737552975e-03
1.449763500015251338e+01,1.470428069495752221e-03
1.459781200019642711e+01,1.473490679533067445e-03
1.469770466664340347e+01,1.476536207152302337e-03
1.479785133351106197e+01,1.479581261985895430e-03
1.489791366679128259e+01,1.482615728791269582e-03
1.499792600015643984e+01,1.485640857776065332e-03
1.509783433342818171e+01,1.488655225983132567e-03
1.519787366676609963e+01,1.491666113216149128e-03
1.529840833344496787e+01,1.494684609406512479e-03
1.539801833336241543e+01,1.497656311070771126e-03
1.549762033345177770e+01,1.500614104415532802e-03
1.559771200001705438e+01,1.503577207167929378e-03
1.569801733340136707e+01,1.506537426662000285e-03
1.579761633335147053e+01,1.509467754217367827e-03
1.589763700007461011e+01,1.512401490737399525e-03
1.599776633328292519e+01,1.515329459047332203e-03
1.609785333334002644e+01,1.518247310016446888e-03
1.619761633349116892e+01,1.521146955702067528e-03
1.629784433334134519e+01,1.524051385318958606e-03
1.639761466661002487e+01,1.526933935519110162e-03
1.649778900004457682e+01,1.529819583638949640e-03
1.659782566677313298e+01,1.532692767254560228e-03
1.669763566670008004e+01,1.535551051429465521e-03
1.679773300001397729e+01,1.538409223161984682e-03
1.689791566669009626e+01,1.541261543281829830e-03
1.699764533340930939e+01,1.544092805201689126e-03
1.709773800009861588e+01,1.546926260770880484e-03
1.719776066683698446e+01,1.549749691952388405e-03
1.729786533338483423e+01,1.552567463190303310e-03
1.739791066676843911e+01,1.555377197624586766e-03
1.749800566665362567e+01,1.558182286225259176e-03
1.759773600008338690e+01,1.560969902973443355e-03
1.769791366660501808e+01,1.563762831763096123e-03
1.779796966665890068e+01,1.566545270251070354e-03
1.789796900004148483e+01,1.569319141225971898e-03
1.799804700014647096e+01,1.572088292684977514e-03
1.809766900015529245e+01,1.574838064960050205e-03
1.819779200013726950e+01,1.577594964727395714e-03
1.829782366671133786e+01,1.580342737045007046e-03
1.839782066678162664e+01,1.583083047198498468e-03
1.849792066670488566e+01,1.585819757446608937e-03
1.859795966674573720e+01,1.588548476332393190e-03
1.869798133336007595e+01,1.591270498604789498e-03
1.879761933349072933e+01,1.593975987679656240e-03
1.889784233330283314e+01,1.596691323700465213e-03
1.899780166661366820e+01,1.599393580905195209e-03
1.909792199998628348e+01,1.602094345092527775e-03
1.919793933338951319e+01,1.604786585999584334e-03
1.929796966677531600e+01,1.607473530093081297e-03
1.939808566682040691e+01,1.610153677044969369e-03
1.949761600012425333e+01,1.612804053175600442e-03
1.959761466667987406e+01,1.615459836990421061e-03
1.969765033340081573e+01,1.618109535428709136e-03
1.979770400002598763e+01,1.620752655381900052e-03
1.989775833347812295e+01,1.623388752983209986e-03
1.999776533327531070e+01,1.626016584488225924e-03
2.009778466669376940e+01,1.628637737407608553e-03
2.019796566676814109e+01,1.631256122975345384e-03
2.029806133348029107e+01,1.633865293482824384e-03
2.039771633327472955e+01,1.636456057393626852e-03
2.049773366667795926e+01,1.639049314675632618e-03
2.059790466667618603e+01,1.641639617338665289e-03
2.069775366678368300e+01,1.644214698641274135e-03
2.079782233340665698e+01,1.646788554609774930e-03
2.089781600004062057e+01,1.649353607183269045e-03
2.099781800003256649e+01,1.651912016890113612e-03
2.109799033333547413e+01,1.654467925905156976e-03
2.119806733343284577e+01,1.657014564030277835e-03
2.129769066674634814e+01,1.659542884884645988e-03
2.139784566685557365e+01,1.662079756726391518e-03
2.149767700012307614e+01,1.664616504022411320e-03
2.159782166662625968e+01,1.667155886454970001e-03
2.169801599998027086e+01,1.669691189215844439e-03
2.179761833336669952e+01,1.672206218929184977e-03
2.189761566673405468e+01,1.674725913754082337e-03
2.199767366668675095e+01,1.677241812966220706e-03
2.209782966668717563e+01,1.679754842623151691e-03
2.219782233342994004e+01,1.682258450787649240e-03
2.229792300006374717e+01,1.684759435495910684e-03
2.239761466661002487e+01,1.687244903661708467e-03
2.249764933332335204e+01,1.689733609083808250e-03
2.259789700002875179e+01,1.692222273199335721e-03
2.269803199998568743e+01,1.694702803262664471e-03
2.279769300017505884e+01,1.697166295203843961e-03
2.289783300017006695e+01,1.699636305549251727e-03
2.299809000012464821e+01,1.702103857798666683e-03
2.309769466682337224e+01,1.704550059633447908e-03
2.319768600014504045e+01,1.707000449153234754e-03
2.329779400012921542e+01,1.709448369609522372e-03
2.339764700003433973e+01,1.711884743748178167e-03
2.349771333346143365e+01,1.714320085671195044e-03
2.359781433339230716e+01,1.716750767234497248e-03
2.369779866677708924e+01,1.719173200041699406e-03
2.379807233333121985e+01,1.721597206663690342e-03
2.389774300006683916e+01,1.724001241391906426e-03
2.399771666678134352e+01,1.726407181101433878e-03
2.409776866680476815e+01,1.728809588085057202e-03
2.419789899990428239e+01,1.731208449606736529e-03
2.429761900007724762e+01,1.733592085459043867e-03
2.439761433342937380e+01,1.735976896274304959e-03
2.449769866676069796e+01,1.738358408581465713e-03
2.459786300011910498e+01,1.740736394489172121e-03
2.469790933327749372e+01,1.743106156394231242e-03
2.479798900010064244e+01,1.745471285770970431e-03
2.489766033343039453e+01,1.747821375370026391e-03
2.499761466670315713e+01,1.750172735890378941e-03
2.509767800010740757e+01,1.752521242296157904e-03
2.519794300012290478e+01,1.754869044233351837e-03
2.529807666677515954e+01,1.757208338464919407e-03
2.539764100010506809e+01,1.759528949457977521e-03
2.549783400003798306e+01,1.761867662062122867e-03
2.559794466686435044e+01,1.764203508492166337e-03
2.569805733335670084e+01,1.766535155243802472e-03
2.579761566664092243e+01,1.768849680274615140e-03
2.589785633340943605e+01,1.771175825390959840e-03
2.599807066668290645e+01,1.773497103856353386e-03
2.609761466667987406e+01,1.775798642889140234e-03
2.619775733340065926e+01,1.778109787364967435e-03
2.629799733345862478e+01,1.780418923029685428e-03
2.639761533343698829e+01,1.782709512612246430e-03
2.649761466681957245e+01,1.785004641781468872e-03
2.659773733350448310e+01,1.787298357017197588e-03
2.669778166676405817e+01,1.789586035464888533e-03
2.679782533342950046e+01,1.791869458128641547e-03
2.689769533334765583e+01,1.794144687485683736e-03
2.699775966675952077e+01,1.796420105971077794e-03
2.709778233338147402e+01,1.798690337342453375e-03
2.719783733342774212e+01,1.800957061788496577e-03
2.729771633329801261e+01,1.803215568685432885e-03
2.739775566675234586e+01,1.805473464352356627e-03
2.749776299996301532e+01,1.807726399645958855e-03
2.759784699999727309e+01,1.809976819745330676e-03
2.769798700010869652e+01,1.812224251514561648e-03
2.779807366675231606e+01,1.814466241022185755e-03
2.789761466684285551e+01,1.816691797808845732e-03
2.799769166659098119e+01,1.818925106588764606e-03
2.809786933346185833e+01,1.821156412088658326e-03
2.819766399997752160e+01,1.823374959295357995e-03
2.829787133354693651e+01,1.825598434899902006e-03
2.839761466661002487e+01,1.827807390003717341e-03
2.849783133342862129e+01,1.830022582586175424e-03
2.859797600016463548e+01,1.832231933055564806e-03
2.869761799997650087e+01,1.834425976738721792e-03
2.879769033333286643e+01,1.836625262215947022e-03
2.889785266667604446e+01,1.838822276935976911e-03
2.899803066684398800e+01,1.841015383710414236e-03
2.909767733339685947e+01,1.843192640321614315e-03
2.919776033342350274e+01,1.845375196107080021e-03
2.929798933339770883e+01,1.847556682627475577e-03
2.939802133326884359e+01,1.849729637723183983e-03
2.949767400010023266e+01,1.851891238385590388e-03
2.959771933348383754e+01,1.854059552049257351e-03
2.969774900004267693e+01,1.856223454616736561e-03
2.979788233339786530e+01,1.858385522210742689e-03
2.989797866670414805e+01,1.860542713496530056e-03
2.999800200003664941e+01,1.862694259353328335e-03
3.009797333343885839e+01,1.864840619132764141e-03
3.019799400016199797e+01,1.866983968597182939e-03
3.029803900013212115e+01,1.869123767521890106e-03
3.039802099997177720e+01,1.871258150349202915e-03
3.049772233341354877e+01,1.873382491366772182e-03
3.059786633343901485e+01,1.875512192783119515e-03
3.069800000009126961e+01,1.877637594540013935e-03
3.079776333342306316e+01,1.879751078641836784e-03
3.089779000007547438e+01,1.881866075831967709e-03
3.099780266673769802e+01,1.883976706875149223e-03
3.109787433349993080e+01,1.886084509590965023e-03
3.119795400009024888e+01,1.888188405672944301e-03
3.129780266678426415e+01,1.890283384428348944e-03
3.139780100004281849e+01,1.892377437787986626e-03
3.149782666668761522e+01,1.894467993189235871e-03
3.159791433333884925e+01,1.896555769716674802e-03
3.169807533337734640e+01,1.898640995511674664e-03
3.179761666676495224e+01,1.900709276507178257e-03
3.189766233344562352e+01,1.902783974333266750e-03
3.199779866670724005e+01,1.904856474292402138e-03
3.209787433338351548e+01,1.906923642442678955e-03
3.219795933342538774e+01,1.908986927842361205e-03
3.229801766667515039e+01,1.911045589395372890e-03
3.239787533343769610e+01,1.913096060999793305e-03
3.249792866664938629e+01,1.915146481238240612e-03
3.259791899996344000e+01,1.917191541096688236e-03
3.269797000009566545e+01,1.919233770020491604e-03
3.279761433333624154e+01,1.921263649945421578e-03
3.289769766677636653e+01,1.923298406197746164e-03
3.299795966665260494e+01,1.925332708334485336e-03
3.309802633337676525e+01,1.927358968974103755e-03
3.319765333342365921e+01,1.929381932669116829e-03
3.329767866665497422e+01,1.931409764123674525e-03
3.339784500014502555e+01,1.933436912156875171e-03
3.349782100005540997e+01,1.935456673910388543e-03
3.359767400007694960e+01,1.937470426293959498e-03
3.369774666673038155e+01,1.939485074801134377e-03
3.379786233336199075e+01,1.941497048883226821e-03
3.389796066668350250e+01,1.943505134691428035e-03
3.399798566685058177e+01,1.945508213613622106e-03
3.409804666670970619e+01,1.947508477105170830e-03
3.419793300016317517e+01,1.949501721205294021e-03
3.429783566680271178e+01,1.951491765720413151e-03
3.439788066665641963e+01,1.953481112146687737e-03
3.449767700000666082e+01,1.955461991274041935e-03
3.459773433348163962e+01,1.957444518932616520e-03
3.469774500001221895e+01,1.959422587680711113e-03
3.479761466674972326e+01,1.961394341690718673e-03
3.489764400001149625e+01,1.963365716111070951e-03
3.499767366668675095e+01,1.965333562333968116e-03
3.509773666667751968e+01,1.967298527769735603e-03
3.519780966674443334e+01,1.969260151919245000e-03
3.529784666665364057e+01,1.971217534467606825e-03
3.539761833334341645e+01,1.973166204111283586e-03
3.549761766672600061e+01,1.975115791770446459e-03
3.559764366666786373e+01,1.977062365277338675e-03
3.569784200016874820e+01,1.979008748856990723e-03
3.579806000005919486e+01,1.980951966713514686e-03
3.589781066682189703e+01,1.982882599706148503e-03
3.599766900006216019e+01,1.984811795762354836e-03
3.609771033341530710e+01,1.986740994893037172e-03
3.619771333341486752e+01,1.988665921235897166e-03
3.629787699994631112e+01,1.990590398790204399e-03
3.639761466672644019e+01,1.992503169798625316e-03
3.649761500000022352e+01,1.994417450168825892e-03
3.659785466664470732e+01,1.996332766641610839e-03
3.669780399999581277e+01,1.998239001384226679e-03
3.679797800013329834e+01,2.000150122501868910e-03
3.689797433337662369e+01,2.002057254927746242e-03
3.699803133343812078e+01,2.003962375677697909e-03
3.709764066664502025e+01,2.005855824257056670e-03
3.719769299996551126e+01,2.007754531349766752e-03
3.729774800001177937e+01,2.009650119542571133e-03
3.739793500001542270e+01,2.011545032711582574e-03
3.749804733332712203e+01,2.013435359286775729e-03
3.759762100013904274e+01,2.015312367113913060e-03
3.769767100003082305e+01,2.017195192343034134e-03
3.779793966666329652e+01,2.019078952997819219e-03
3.789802633330691606e+01,2.020956119955537224e-03
3.799810466670896858e+01,2.022829959460354342e-03
3.809763600002042949e+01,2.024690412007355313e-03
3.819775466679129750e+01,2.026558678792211160e-03
3.829774933343287557e+01,2.028421463979046893e-03
3.839783399994485080e+01,2.030282755756862047e-03
3.849798799993004650e+01,2.032142162216097128e-03
3.859761966671794653e+01,2.033988720288973026e-03
3.869762066670227796e+01,2.035838963245013150e-03
3.879768466681707650e+01,2.037687202723495808e-03
3.889788466680329293e+01,2.039534777612695988e-03
3.899771766667254269e+01,2.041372424134495385e-03
3.909787433338351548e+01,2.043212857596749671e-03
3.919765799993183464e+01,2.045043278703597388e-03
3.929774533328600228e+01,2.046876103455904424e-03
3.939774333348032087e+01,2.048704124964069190e-03
3.949797466676682234e+01,2.050533234908242814e-03
3.959776300005614758e+01,2.052351100922532052e-03
3.969789866660721600e+01,2.054172125227441640e-03
3.979765266668982804e+01,2.055983052175041140e-03
