Time [s],Voltage [V]
0.000000000000000000e+00,1.626249179940125050e-04
9.774633357301354408e-02,1.840960456468344235e-04
1.977363334735855460e-01,2.011580682143110452e-04
2.978050000965595245e-01,2.167593569558642430e-04
3.979143333854153752e-01,2.317875583354735668e-04
4.978750002337619662e-01,2.463721131045559050e-04
5.977999999886378646e-01,2.606851509033157512e-04
6.978450000751763582e-01,2.747346048650841288e-04
7.982550000306218863e-01,2.885552360863015680e-04
8.983370001660659909e-01,3.020454915128052004e-04
9.975996668217703700e-01,3.151713208053877292e-04
1.097955666715279222e+00,3.281902535465254771e-04
1.197594333556480706e+00,3.408606598681819186e-04
1.297664333484135568e+00,3.533297084317376345e-04
1.397742333472706378e+00,3.655885717208992710e-04
1.497798000113107264e+00,3.776293910180732660e-04
1.597942000138573349e+00,3.894509072705870613e-04
1.697951000067405403e+00,4.010269177115757507e-04
1.797948000021278858e+00,4.124221750455642687e-04
1.897592333378270268e+00,4.235944124250418281e-04
1.997606333461590111e+00,4.346087506193000707e-04
2.097691333387047052e+00,4.454309794301332653e-04
2.197793666739016771e+00,4.560975199180293451e-04
2.297940333373844624e+00,4.666079449083796902e-04
2.397998666856437922e+00,4.769346191879776219e-04
2.497606333461590111e+00,4.870415550737159554e-04
2.597668333444744349e+00,4.970423563432889175e-04
2.697802999988198280e+00,5.069036194195265842e-04
2.797839666833169758e+00,5.166067203999295636e-04
2.897927666665054858e+00,5.261707907355140258e-04
2.998030333430506289e+00,5.355967288995824556e-04
3.097641000058501959e+00,5.448423272734585765e-04
3.197690333472564816e+00,5.539985987415306295e-04
3.297697333502583206e+00,5.630252789216508421e-04
3.397808333509601653e+00,5.719391310361855241e-04
3.497921333531849086e+00,5.807354866843649844e-04
3.598004333442077041e+00,5.894163697899170535e-04
3.698053666623309255e+00,5.979860432495721131e-04
3.797740000067278743e+00,6.064213832948457325e-04
3.898193666711449623e+00,6.148218986990780337e-04
3.997728666872717440e+00,6.230512600945490968e-04
4.097781333373859525e+00,6.312332490753498962e-04
4.197864000219851732e+00,6.393143842827364760e-04
4.297876333468593657e+00,6.472929196242149363e-04
4.397595666698180139e+00,6.551614717290911438e-04
4.497767666820436716e+00,6.629821020534936967e-04
4.597814333392307162e+00,6.707127078920264215e-04
4.697869000025093555e+00,6.783671682252831285e-04
4.797592333517968655e+00,6.859233079610783631e-04
4.897594000212848186e+00,6.934308015937994552e-04
4.997931666788645089e+00,7.008769291786269605e-04
5.098055666778236628e+00,7.082258484324325349e-04
5.197605666704475880e+00,7.154619042368302959e-04
5.297681666677817702e+00,7.226673282272365936e-04
5.397654000204056501e+00,7.297985738349521386e-04
5.497726000146940351e+00,7.368723805790328759e-04
5.597734000068157911e+00,7.438793746359383986e-04
5.697803666698746383e+00,7.508305948153120961e-04
5.797874333453364670e+00,7.577101708493946168e-04
5.897859333548694849e+00,7.645153996980605729e-04
5.997743666754104197e+00,7.712523423028665474e-04
6.097898000152781606e+00,7.779472265304342464e-04
6.197876333491876721e+00,7.845715362010406745e-04
6.297924000187776983e+00,7.911430034121410236e-04
6.397778666694648564e+00,7.976458815738668960e-04
6.497851000051014125e+00,8.041082755350495220e-04
6.597865000134333968e+00,8.105110646988819730e-04
6.697890000184997916e+00,8.168602342358601822e-04
6.797840000013820827e+00,8.231526502769086640e-04
6.897876333561725914e+00,8.293996843830996491e-04
6.997638000058941543e+00,8.355801542465423433e-04
7.097793333465233445e+00,8.417366005603430391e-04
7.197975666727870703e+00,8.478474072635255182e-04
7.297595666837878525e+00,8.538782224221403566e-04
7.397596333408728242e+00,8.598826480611741329e-04
7.497655333369038999e+00,8.658423431244989966e-04
7.597698000143282115e+00,8.717558350427140031e-04
7.697821666719391942e+00,8.776297543118662201e-04
7.797870333422906697e+00,8.834558653116516549e-04
7.898013000143691897e+00,8.892449186087838468e-04
7.998002666747197509e+00,8.949835926911929107e-04
8.098061333410441875e+00,9.006856008716433758e-04
8.197808666736818850e+00,9.063303312901446274e-04
8.297910000081174076e+00,9.119563283670051443e-04
8.397592333378270268e+00,9.175210980014178799e-04
8.497661000001244247e+00,9.230705339693287244e-04
8.597709666704759002e+00,9.285828186106976278e-04
8.697802000213414431e+00,9.340623675042017014e-04
8.797855666722171009e+00,9.395055908637062539e-04
8.898013666737824678e+00,9.449211564680429914e-04
8.997627000208012760e+00,9.502697515353219354e-04
9.097693999996408820e+00,9.556069735336452037e-04
9.197718000039458275e+00,9.609095670813556402e-04
9.297775999992154539e+00,9.661824167672886489e-04
9.397892666747793555e+00,9.714275778457138457e-04
9.498015000019222498e+00,9.766430436932839292e-04
9.597595333470962942e+00,9.818013184557787022e-04
9.697652333532460034e+00,9.869559931201558542e-04
9.797670333413407207e+00,9.920811126979205662e-04
9.898003666778095067e+00,9.971955218668134176e-04
9.997818333329632878e+00,1.002257586318411244e-03
1.009786166681442410e+01,1.007306117027867995e-03
1.019801300019025803e+01,1.012335696820187980e-03
1.029763366677798331e+01,1.017315198829932960e-03
1.039770966675132513e+01,1.022294730532208491e-03
1.049777800019364804e+01,1.027251899115097337e-03
1.059782200015615672e+01,1.032170751096458255e-03
1.069759433355648071e+01,1.037042857418850935e-03
1.079759233351796865e+01,1.041901535111736631e-03
1.089785766683053225e+01,1.046749148127669232e-03
1.099759300018195063e+01,1.051547758505681340e-03
1.109773166675586253e+01,1.056342835673888640e-03
1.119798533339053392e+01,1.061120915608699568e-03
1.129766933352220803e+01,1.065850036693131954e-03
1.139792566676624119e+01,1.070584895671594476e-03
1.149795733345672488e+01,1.075288260032373003e-03
1.159770600008778274e+01,1.079958062337210267e-03
1.169771833333652467e+01,1.084620418504077428e-03
1.179778466676361859e+01,1.089265978610100792e-03
1.189791533350944519e+01,1.093895708015932885e-03
1.199769066681619734e+01,1.098490801492165315e-03
1.209776100015733391e+01,1.103081744567340839e-03
1.219786366668995470e+01,1.107645927255156105e-03
1.229768533341120929e+01,1.112171144285696144e-03
1.239773766684811562e+01,1.116687165511325670e-03
1.249779366690199822e+01,1.121183997563609397e-03
1.259781566681340337e+01,1.125660278148703838e-03
1.269760766671970487e+01,1.130107631273916374e-03
1.279789266665466130e+01,1.134558527145992143e-03
1.289784533332567662e+01,1.138976612856178010e-03
1.299796166678424925e+01,1.143384180501040440e-03
1.309759666665922850e+01,1.147753238212490586e-03
1.319760700012557209e+01,1.152121699679781435e-03
1.329781900008674711e+01,1.156482153639410999e-03
1.339790000009816140e+01,1.160820429715912067e-03
1.349759233347140253e+01,1.165125806875543088e-03
1.359761666681151837e+01,1.169429742820218138e-03
1.369786000018939376e+01,1.173727567341259753e-03
1.379759433341678232e+01,1.177982526769496673e-03
1.389804700005333871e+01,1.182247775033183450e-03
1.399763100012205541e+01,1.186459764160944109e-03
1.409783133340533823e+01,1.190681578044416227e-03
1.419786433340050280e+01,1.194880300779150445e-03
1.429802133352495730e+01,1.199068383782518534e-03
1.439772733347490430e+01,1.203222071901597408e-03
1.449775933346245438e+01,1.207373975345254515e-03
1.459789400000590831e+01,1.211514937938643543e-03
1.469803466671146452e+01,1.215641150137846543e-03
1.479805766674689949e+01,1.219747753800832710e-03
1.489788733352907002e+01,1.223831922510651947e-03
1.499759233335498720e+01,1.227896745226854207e-03
1.509759766689967364e+01,1.231959722222639034e-03
1.519768700015265495e+01,1.236012195161373482e-03
1.529804466676432639e+01,1.240061767376289883e-03
1.539759233349468559e+01,1.244063181710598504e-03
1.549770066677592695e+01,1.248071771480556858e-03
1.559770233347080648e+01,1.252062147290052951e-03
1.569775933329947293e+01,1.256040912123404518e-03
1.579786333348602057e+01,1.260007838270732830e-03
1.589802866685204208e+01,1.263963593276869364e-03
1.599772900016978383e+01,1.267887590814770898e-03
1.609775866684503853e+01,1.271811236256200663e-03
1.619778600020799786e+01,1.275721566342084400e-03
1.629763100016862154e+01,1.279611689157457172e-03
1.639771333336830139e+01,1.283498050024884079e-03
1.649781600013375282e+01,1.287372274426970033e-03
1.659788466675672680e+01,1.291232361158310520e-03
1.669759700016584247e+01,1.295066046470710192e-03
1.679759266681503505e+01,1.298898029923086297e-03
1.689794566680211574e+01,1.302731115643300606e-03
1.699796233349479735e+01,1.306539245152283030e-03
1.709759200003463775e+01,1.310320724939637201e-03
1.719770466675981879e+01,1.314108416716066197e-03
1.729786100017372519e+01,1.317885694034290518e-03
1.739795633347239345e+01,1.321648701210999342e-03
1.749803300015628338e+01,1.325399129867248140e-03
1.759761233348399401e+01,1.329119215787850829e-03
1.769766800000797957e+01,1.332845417034520018e-03
1.779782000009436160e+01,1.336563559323475803e-03
1.789787700015585870e+01,1.340266614323440972e-03
1.799766600015573204e+01,1.343948314345994087e-03
1.809775433340109885e+01,1.347629655333896018e-03
1.819786900014150888e+01,1.351300607555044626e-03
1.829798000014852732e+01,1.354960131665014934e-03
1.839800500019919127e+01,1.358605294949877598e-03
1.849765466677490622e+01,1.362225689531049557e-03
1.859782000014092773e+01,1.365854585459482006e-03
1.869787166686728597e+01,1.369469277024986612e-03
1.879794500011485070e+01,1.373074139390591253e-03
1.889782066666521132e+01,1.376661384974255109e-03
1.899795100011397153e+01,1.380247335632701564e-03
1.909793600009288639e+01,1.383817732110010496e-03
1.919801700022071600e+01,1.387381281792223267e-03
1.929764066671486944e+01,1.390918417860299416e-03
1.939763033355120569e+01,1.394458465707427378e-03
1.949787700013257563e+01,1.397997550141910975e-03
1.959795566671527922e+01,1.401520730710295506e-03
1.969799533346667886e+01,1.405032655373087466e-03
1.979770933347754180e+01,1.408523388518065876e-03
1.989759233337827027e+01,1.412010342896495921e-03
1.999769166682381183e+01,1.415495186593520270e-03
2.009773666679393500e+01,1.418968543852261672e-03
2.019769133336376399e+01,1.422429254964479878e-03
2.029782400000840425e+01,1.425886666123235688e-03
2.039781233342364430e+01,1.429329709847225504e-03
2.049782933341339231e+01,1.432764425238427586e-03
2.059794600016903132e+01,1.436193297130656122e-03
2.069801500020548701e+01,1.439611335606902440e-03
2.079816100001335144e+01,1.443022856964526436e-03
2.089772200002335012e+01,1.446405439614767766e-03
2.099799300020094961e+01,1.449803123696300541e-03
2.109762566688004881e+01,1.453170269093613434e-03
2.119767666677944362e+01,1.456542672893450935e-03
2.129770966677460819e+01,1.459905630062712130e-03
2.139774166687857360e+01,1.463259769172241698e-03
2.149783633346669376e+01,1.466607270229429525e-03
2.159770200005732477e+01,1.469938452622246601e-03
2.169770500017330050e+01,1.473265598657306965e-03
2.179778166685719043e+01,1.476586412140846408e-03
2.189779766683932394e+01,1.479896463107824517e-03
2.199788800009991974e+01,1.483200429458302310e-03
2.209797233354765922e+01,1.486495693174861915e-03
2.219767566677182913e+01,1.489769997589168119e-03
2.229770566674415022e+01,1.493046629397033667e-03
2.239803133346140385e+01,1.496324533267517215e-03
2.249762333335820585e+01,1.499570170082669719e-03
2.259761466667987406e+01,1.502820541037433585e-03
2.269779366662260145e+01,1.506068727091594995e-03
2.279785133351106197e+01,1.509304734276301595e-03
2.289790800004266202e+01,1.512532501304949401e-03
2.299790366669185460e+01,1.515750130744425005e-03
2.309794733335729688e+01,1.518961160722878678e-03
2.319793633336666971e+01,1.522162324653502513e-03
2.329795300005935133e+01,1.525356288233212319e-03
2.339762466680258512e+01,1.528531214061813054e-03
2.349792400002479553e+01,1.531718075033971930e-03
2.359759200003463775e+01,1.534876891164431868e-03
2.369759233342483640e+01,1.538038261385776991e-03
2.379770733346231282e+01,1.541195270795082516e-03
2.389822200022172183e+01,1.544356863620340373e-03
2.399779200006742030e+01,1.547480837335204161e-03
2.409764500008895993e+01,1.550605804110536008e-03
2.419774200022220612e+01,1.553730495430080336e-03
2.429781633336097002e+01,1.556846573832757537e-03
2.439798033353872597e+01,1.559957541127645567e-03
2.449770333338528872e+01,1.563046967505995685e-03
2.459780100011266768e+01,1.566140139464948424e-03
2.469765600014943630e+01,1.569217972781934136e-03
2.479792100004851818e+01,1.572300571493347003e-03
2.489799700013827533e+01,1.575369498883338795e-03
2.499778200010769069e+01,1.578424429325900498e-03
2.509759200015105307e+01,1.581475565922226337e-03
2.519761266687419266e+01,1.584526000441232717e-03
2.529789733339566737e+01,1.587577344610836133e-03
2.539759233337827027e+01,1.590603694057155394e-03
2.549798666674178094e+01,1.593644201120924999e-03
2.559802633337676525e+01,1.596666942683108281e-03
2.569761400006245822e+01,1.599669096080380808e-03
2.579790933337062597e+01,1.602685626940386068e-03
2.589787533355411142e+01,1.605685339239418599e-03
2.599795466684736311e+01,1.608681570760517017e-03
2.609795000019948930e+01,1.611668442158912043e-03
2.619759266683831811e+01,1.614638003901663118e-03
2.629794200009200722e+01,1.617621820732303810e-03
2.639770100021269172e+01,1.620581345267229148e-03
2.649770866683684289e+01,1.623541531838194624e-03
2.659795766673050821e+01,1.626502142885676754e-03
2.669804000016301870e+01,1.629451149981432081e-03
2.679763466666918248e+01,1.632379187537684809e-03
2.689793933334294707e+01,1.635321471514705662e-03
2.699791400006506592e+01,1.638247484073733582e-03
2.709790333348792046e+01,1.641167370016914477e-03
2.719792766671162099e+01,1.644081743758433242e-03
2.729796966677531600e+01,1.646990120115137107e-03
2.739772400015499443e+01,1.649883673239638509e-03
2.749779000016860664e+01,1.652779809406136786e-03
2.759789533354341984e+01,1.655670636056311932e-03
2.769793366664089262e+01,1.658553108012077474e-03
2.779802133340854198e+01,1.661430601281403338e-03
2.789806166663765907e+01,1.664300358252866676e-03
2.799795066670048982e+01,1.667159435698780745e-03
2.809797333332244307e+01,1.670016013319932258e-03
2.819771833345293999e+01,1.672859174195760312e-03
2.829792399995494634e+01,1.675710218232363130e-03
2.839790066680870950e+01,1.678548678522181776e-03
2.849802166677545756e+01,1.681385190751426891e-03
2.859778566670138389e+01,1.684205599058683769e-03
2.869793166685849428e+01,1.687030821187838169e-03
2.879791666672099382e+01,1.689845546213266173e-03
2.889763733348809183e+01,1.692646930138229366e-03
2.899787833332084119e+01,1.695457020157914007e-03
2.909759200015105307e+01,1.698246473660452267e-03
2.919786100008059293e+01,1.701045601570151753e-03
2.929761833336669952e+01,1.703824639187991648e-03
2.939776900003198534e+01,1.706608833789799006e-03
2.949792500014882535e+01,1.709387389460175193e-03
2.959764966671355069e+01,1.712148253588309781e-03
2.969778333348222077e+01,1.714914717036733916e-03
2.979791366681456566e+01,1.717675377277863786e-03
2.989767500013113022e+01,1.720420208092533071e-03
2.999784266680944711e+01,1.723170562201721588e-03
3.009769600012805313e+01,1.725906667074127848e-03
3.019771866675000638e+01,1.728641810679295773e-03
3.029783966683316976e+01,1.731374051381956783e-03
3.039765633351635188e+01,1.734092439826915785e-03
3.049763533333316445e+01,1.736809718567457889e-03
3.059775266679935157e+01,1.739525231690195253e-03
3.069800833333283663e+01,1.742238977327873264e-03
3.079759233340155333e+01,1.744929094665189414e-03
3.089775166683830321e+01,1.747629297772926435e-03
3.099759233335498720e+01,1.750315484116599573e-03
3.109778300009202212e+01,1.753005661076589275e-03
3.119759666675236076e+01,1.755680329652718448e-03
3.129771933343727142e+01,1.758357896742610178e-03
3.139780266676098108e+01,1.761029257253926604e-03
3.149799700011499226e+01,1.763698536650646839e-03
3.159765800007153302e+01,1.766348365340690693e-03
3.169789766671601683e+01,1.769008326508533183e-03
3.179786066676024348e+01,1.771655719386714279e-03
3.189794066676404327e+01,1.774301002112942029e-03
3.199801033339463174e+01,1.776940820293016528e-03
3.209760100010316819e+01,1.779562867730499808e-03
3.219762333342805505e+01,1.782191143247923099e-03
3.229773033352103084e+01,1.784816507640895732e-03
3.239780366688501090e+01,1.787435872049474277e-03
3.249790366680826992e+01,1.790050834352068182e-03
3.259789933345746249e+01,1.792657996140349479e-03
3.269798133336007595e+01,1.795262347543404588e-03
3.279804733337368816e+01,1.797861237566855501e-03
3.289762233349028975e+01,1.800442384739497611e-03
3.299764533352572471e+01,1.803030149329191544e-03
3.309775499999523163e+01,1.805615159324108591e-03
3.319780299998819828e+01,1.808193598757293135e-03
3.329796266683842987e+01,1.810769946912808631e-03
3.339802100008819252e+01,1.813338739697351824e-03
3.349774033355060965e+01,1.815893923315354576e-03
3.359796466678380966e+01,1.818457126916975947e-03
3.369769633340183645e+01,1.821002849214876538e-03
3.379790566675364971e+01,1.823555874175038704e-03
3.389812300004996359e+01,1.826104214711960936e-03
3.399769166670739651e+01,1.828631233515810688e-03
3.409759233344811946e+01,1.831161856055052136e-03
3.419783766672480851e+01,1.833696367368230348e-03
3.429806800012011081e+01,1.836225663099477811e-03
3.439777433336712420e+01,1.838736950277376206e-03
3.449777166685089469e+01,1.841250785307239164e-03
3.459784100018441677e+01,1.843762071034930851e-03
3.469759233342483640e+01,1.846261317629523894e-03
3.479759233351796865e+01,1.848762170511132012e-03
3.489759733341634274e+01,1.851258535653323503e-03
3.499761199997738004e+01,1.853750545720842793e-03
3.509771000000182539e+01,1.856240046863371577e-03
3.519792066689115018e+01,1.858727772076924651e-03
3.529771700000856072e+01,1.861200675900550076e-03
3.539775266672950238e+01,1.863674984337060489e-03
3.549772833334282041e+01,1.866143297758877679e-03
3.559779866668395698e+01,1.868609448624707287e-03
3.569785766676068306e+01,1.871070835085634175e-03
3.579786400008015335e+01,1.873526460546243427e-03
3.589759233349468559e+01,1.875970829770962035e-03
3.599796599999535829e+01,1.878426565000409620e-03
3.609759300015866756e+01,1.880859631706041776e-03
3.619774266669992357e+01,1.883301059299140020e-03
3.629777533351443708e+01,1.885735242419354050e-03
3.639779933355748653e+01,1.888164840402497494e-03
3.649797200004104525e+01,1.890593680476544561e-03
3.659771166671998799e+01,1.893007692335674837e-03
3.669777233351487666e+01,1.895425146813813555e-03
3.679791233339346945e+01,1.897840193532197677e-03
3.689799866674002260e+01,1.900249637419037813e-03
3.699801099998876452e+01,1.902653011128816211e-03
3.709790433349553496e+01,1.905049259403493716e-03
3.719798133347649127e+01,1.907445652054811204e-03
3.729766000015661120e+01,1.909828279840296685e-03
3.739783133345190436e+01,1.912218447652494317e-03
3.749785100005101413e+01,1.914600772633095116e-03
3.759786666673608124e+01,1.916978794777822069e-03
3.769789333338849247e+01,1.919352883046388436e-03
3.779768566670827568e+01,1.921717241142826497e-03
3.789791433350183070e+01,1.924087758812403643e-03
3.799781900004018098e+01,1.926446458558239401e-03
3.809785833349451423e+01,1.928804193196084456e-03
3.819784933351911604e+01,1.931156656321130751e-03
3.829789800022263080e+01,1.933506352967618008e-03
3.839794866682495922e+01,1.935851983697858348e-03
3.849798333353828639e+01,1.938193138830160639e-03
3.859767633350566030e+01,1.940522229820223479e-03
3.869769100006669760e+01,1.942854766190141216e-03
3.879779300012160093e+01,1.945185268807043781e-03
3.889788700011558831e+01,1.947511524152694849e-03
3.899838433356489986e+01,1.949843078542391707e-03
3.909761533350683749e+01,1.952141258083663067e-03
3.919799033354502171e+01,1.954461903560911207e-03
3.929806433338671923e+01,1.956771566260933487e-03
3.939759233349468559e+01,1.959064652562275861e-03
3.949762166675645858e+01,1.961365305048970095e-03
3.959793000016361475e+01,1.963668373078651316e-03
3.969759233354125172e+01,1.965952650108861686e-03
3.979774566681589931e+01,1.968244214918265546e-03
