Time [s],Voltage [V]
0.000000000000000000e+00,2.820836705478412844e-03
9.742299991194158792e-02,2.829776964915488649e-03
1.975886666914448142e-01,2.837766834301332260e-03
2.976120000239461660e-01,2.845495508601894943e-03
3.977746666641905904e-01,2.853038908912085801e-03
4.974210000364109874e-01,2.860414011526641112e-03
5.975566668203100562e-01,2.867695017980864593e-03
6.975030000321567059e-01,2.874819784430735891e-03
7.977773334132507443e-01,2.881829024670477281e-03
8.973803333938121796e-01,2.888684387772666277e-03
9.973010000539943576e-01,2.895444462215516785e-03
1.097616000100970268e+00,2.902113115357104079e-03
1.197723333374597132e+00,2.908650184440907463e-03
1.297646666644141078e+00,2.915097015524486385e-03
1.397510000038892031e+00,2.921438432768734203e-03
1.497511666617356241e+00,2.927686910993453507e-03
1.597771000117063522e+00,2.933849808196319423e-03
1.697540666675195098e+00,2.939920287067874626e-03
1.797495000064373016e+00,2.945916244975241727e-03
1.897817666642367840e+00,2.951847986733673133e-03
1.997653333353810012e+00,2.957665649798959379e-03
2.097391333431005478e+00,2.963420256355192746e-03
2.197636333294212818e+00,2.969129450852608758e-03
2.297669999999925494e+00,2.974751992123271863e-03
2.397597000002861023e+00,2.980294443958174128e-03
2.497649666620418429e+00,2.985782882444914209e-03
2.597530333325266838e+00,2.991196630163622024e-03
2.697736000060103834e+00,2.996564298882070307e-03
2.797403666656464338e+00,3.001841688107347028e-03
2.897642000112682581e+00,3.007089794610672082e-03
2.997694666613824666e+00,3.012270330804612487e-03
3.097418666817247868e+00,3.017378217941865323e-03
3.197779333451762795e+00,3.022464538191455691e-03
3.297559333383105695e+00,3.027469434876156867e-03
3.397498000063933432e+00,3.032432206109355981e-03
3.497388666612096131e+00,3.037344387122135111e-03
3.597526333294808865e+00,3.042221873537192135e-03
3.697583333472721279e+00,3.047044013575847532e-03
3.797701000003144145e+00,3.051823560734114038e-03
3.897819333360530436e+00,3.056559139864135823e-03
3.997500666766427457e+00,3.061231855737291119e-03
4.097489000181667507e+00,3.065878189201797638e-03
4.198054333450272679e+00,3.070511684771521765e-03
4.298087333329021931e+00,3.075082738077498674e-03
4.397878999938257039e+00,3.079605907095759633e-03
4.497979000094346702e+00,3.084098864172300954e-03
4.597999666817486286e+00,3.088551502620106703e-03
4.697930000140331686e+00,3.092964563301638537e-03
4.797548666829243302e+00,3.097329615558036629e-03
4.897498000180348754e+00,3.101675928106911555e-03
4.997674000100232661e+00,3.105999839874020070e-03
5.097505999961867929e+00,3.110277911631209591e-03
5.197812666767276824e+00,3.114545591868438622e-03
5.297438666806556284e+00,3.118747918827661364e-03
5.397686666692607105e+00,3.122945861165915722e-03
5.497498666751198471e+00,3.127095841783443173e-03
5.597456333343870938e+00,3.131222988093826289e-03
5.697829333483241498e+00,3.135339010093637739e-03
5.797572666779160500e+00,3.139401958759229123e-03
5.897729666787199676e+00,3.143455238014994726e-03
5.997630000114440918e+00,3.147472035631333938e-03
6.097845333511941135e+00,3.151472566072438270e-03
6.197597333346493542e+00,3.155429094251667194e-03
6.297454666811972857e+00,3.159364957162257882e-03
6.397706000017933547e+00,3.163291994484204554e-03
6.497388000134378672e+00,3.167173178599988655e-03
6.597789333318360150e+00,3.171059281815283726e-03
6.697801999980583787e+00,3.174907952703881313e-03
6.797588000074028969e+00,3.178725697827967586e-03
6.897605333477258682e+00,3.182526737215938227e-03
6.997379333362914622e+00,3.186296449666246866e-03
7.097844666684977710e+00,3.190070457992575867e-03
7.197887666756287217e+00,3.193807295829449808e-03
7.297664333367720246e+00,3.197513463463097678e-03
7.397529000067152083e+00,3.201202630809164666e-03
7.497745000058785081e+00,3.204884847539475959e-03
7.597651333431713283e+00,3.208536268758852960e-03
7.697654333314858377e+00,3.212172262079531805e-03
7.797566666849888861e+00,3.215786468414021972e-03
7.897837000084109604e+00,3.219395500031480960e-03
7.997686000075191259e+00,3.222971777865653222e-03
8.097953999997116625e+00,3.226545857390383451e-03
8.197704666759818792e+00,3.230084841442082064e-03
8.297560333390720189e+00,3.233611365499822633e-03
8.397546666790731251e+00,3.237126233912551113e-03
8.497773333336226642e+00,3.240631476548032266e-03
8.597655000048689544e+00,3.244109154812772206e-03
8.697777000139467418e+00,3.247580085076123141e-03
8.797454000101424754e+00,3.251020964054250791e-03
8.897723000030964613e+00,3.254467969042850774e-03
8.997572666732594371e+00,3.257886706312528198e-03
9.097765333368442953e+00,3.261303705523257122e-03
9.197471666615456343e+00,3.264691121053171080e-03
9.297774666803888977e+00,3.268086137672124043e-03
9.397812666604295373e+00,3.271459939129349372e-03
9.497681000037118793e+00,3.274816230921792810e-03
9.597720666672103107e+00,3.278166883738490266e-03
9.697491999948397279e+00,3.281497597576276629e-03
9.797683666693046689e+00,3.284831749246276342e-03
9.897408666671253741e+00,3.288140238060688510e-03
9.997743333340622485e+00,3.291456514416725258e-03
1.009742033341899514e+01,3.294730757449694167e-03
1.019782433344516903e+01,3.298017471204705772e-03
1.029789400007575750e+01,3.301282116782612228e-03
1.039763366687111557e+01,3.304525215089815747e-03
1.049758366669993848e+01,3.307764623736699806e-03
1.059748633333947510e+01,3.310992234806851495e-03
1.069738899997901171e+01,3.314209853777867667e-03
1.079773600003682077e+01,3.317431995894149291e-03
1.089746033330447972e+01,3.320624694874135113e-03
1.099775999994017184e+01,3.323826582604038141e-03
1.109733633336145431e+01,3.326996489915455459e-03
1.119742633332498372e+01,3.330174092948476154e-03
1.129756066668778658e+01,3.333344689302192385e-03
1.139754399994853884e+01,3.336502377496114100e-03
1.149764899990987033e+01,3.339656042821295429e-03
1.159769366658292711e+01,3.342797905765079475e-03
1.169736600003670901e+01,3.345912963445136536e-03
1.179785500001162291e+01,3.349044650224233637e-03
1.189781300013419241e+01,3.352151094430474987e-03
1.199749733344651759e+01,3.355240562567723961e-03
1.209759966679848731e+01,3.358334637753754032e-03
1.219770933326799423e+01,3.361420738877055406e-03
1.229762633331120014e+01,3.364492888411847737e-03
1.239758800016716123e+01,3.367558566461915665e-03
1.249730433337390423e+01,3.370609066972504904e-03
1.259763033338822424e+01,3.373670669681191198e-03
1.269776666664984077e+01,3.376719100163584272e-03
1.279768100008368492e+01,3.379753584891887624e-03
1.289771000004839152e+01,3.382784525527694937e-03
1.299747699999716133e+01,3.385800688829411053e-03
1.309746133326552808e+01,3.388816735465962661e-03
1.319779466674663126e+01,3.391835187657816966e-03
1.329773166659288108e+01,3.394830937519292824e-03
1.339765400008764118e+01,3.397819007005946010e-03
1.349768266663886607e+01,3.400803108756476900e-03
1.359780666674487293e+01,3.403782997521614083e-03
1.369752500008326024e+01,3.406743899172210051e-03
1.379779700015205890e+01,3.409714388055180324e-03
1.389772400003857911e+01,3.412667924679574534e-03
1.399784700013697147e+01,3.415620618971014922e-03
1.409764833329245448e+01,3.418557321047356254e-03
1.419773200002964586e+01,3.421495912075091326e-03
1.429772233346011490e+01,3.424425448052783282e-03
1.439774866681545973e+01,3.427349827995822620e-03
1.449762866669334471e+01,3.430263835532197051e-03
1.459765766677446663e+01,3.433176191046976872e-03
1.469751433352939785e+01,3.436077644970306384e-03
1.479791833332274109e+01,3.438988534505319807e-03
1.489763200015295297e+01,3.441872141645080114e-03
1.499788666667882353e+01,3.444765307205438845e-03
1.509773100016172975e+01,3.447640622419662765e-03
1.519746300007682294e+01,3.450506771013382799e-03
1.529741433332674205e+01,3.453373328120904178e-03
1.539743200014345348e+01,3.456235931878147340e-03
1.549769033328630030e+01,3.459099594705159018e-03
1.559782399993855506e+01,3.461953919523929907e-03
1.569746433338150382e+01,3.464788496528756374e-03
1.579763233347330242e+01,3.467632412379104828e-03
1.589738333330024034e+01,3.470458879269633281e-03
1.599750366678927094e+01,3.473290222611258825e-03
1.609766433329787105e+01,3.476117142829809534e-03
1.619743066676892340e+01,3.478927438077450765e-03
1.629766033333726227e+01,3.481745297049263291e-03
1.639736133336555213e+01,3.484542990957400100e-03
1.649742200016044080e+01,3.487345634594928457e-03
1.659742433344945312e+01,3.490141345072774598e-03
1.669779966666828841e+01,3.492942191844968045e-03
1.679742366669233888e+01,3.495716865715467470e-03
1.689754233334679157e+01,3.498500122386135822e-03
1.699766400002408773e+01,3.501278286152776850e-03
1.709772266668733209e+01,3.504049559979707969e-03
1.719781833339948207e+01,3.506816743672887000e-03
1.729743066674564034e+01,3.509565512963989942e-03
1.739764833333902061e+01,3.512325925014189981e-03
1.749754066672176123e+01,3.515072347661011686e-03
1.759785333334002644e+01,3.517825297063422070e-03
1.769793933338951319e+01,3.520567023141292756e-03
1.779749733337666839e+01,3.523289346542182298e-03
1.789748733327724040e+01,3.526018542105888078e-03
1.799788433336652815e+01,3.528754306277237345e-03
1.809751733334269375e+01,3.531465131274149662e-03
1.819743366667535156e+01,3.534179032522163488e-03
1.829763466666918248e+01,3.536896043319078670e-03
1.839774400007445365e+01,3.539605981959551353e-03
1.849751766666304320e+01,3.542302308135956632e-03
1.859762366674840450e+01,3.545003109358397901e-03
1.869750533346086740e+01,3.547693394117537417e-03
1.879738433333113790e+01,3.550379181907935972e-03
1.889786100015044212e+01,3.553076609885497204e-03
1.899730766669381410e+01,3.555742042265512895e-03
1.909751933335792273e+01,3.558423639404487485e-03
1.919748799991793931e+01,3.561094425620955906e-03
1.929764000000432134e+01,3.563765826028787460e-03
1.939752566674724221e+01,3.566425882330687483e-03
1.949773033335804939e+01,3.569090209321017573e-03
1.959747499995864928e+01,3.571738132586621452e-03
1.969789700000546873e+01,3.574399860404925931e-03
1.979745900002308190e+01,3.577034684721269904e-03
1.989742066664621234e+01,3.579675997815865568e-03
1.999743666662834585e+01,3.582314674252933939e-03
2.009747733350377530e+01,3.584949953314154215e-03
2.019747300003655255e+01,3.587580027281064496e-03
2.029742400010582060e+01,3.590204935993887049e-03
2.039770533342380077e+01,3.592834535800414932e-03
2.049770500010345131e+01,3.595452800438089791e-03
2.059775666682980955e+01,3.598068503895843293e-03
2.069759366672951728e+01,3.600674707552634860e-03
2.079750599991530180e+01,3.603279012761379657e-03
2.089773899991996586e+01,3.605887813824478622e-03
2.099759233335498720e+01,3.608482908148984494e-03
2.109733166662044823e+01,3.611071249691800208e-03
2.119736100011505187e+01,3.613663082145102817e-03
2.129776200000196695e+01,3.616260427973547707e-03
2.139772233343683183e+01,3.618842545916000058e-03
2.149745633325073868e+01,3.621415025103740491e-03
2.159754833334591240e+01,3.623992943708378295e-03
2.169742033339571208e+01,3.626561420236807526e-03
2.179753566673025489e+01,3.629132381640228291e-03
2.189739399997051805e+01,3.631692991835706614e-03
2.199783733335789293e+01,3.634264834382315741e-03
2.209747366677038372e+01,3.636812290066143965e-03
2.219729966681916267e+01,3.639360885453235377e-03
2.229760766669642180e+01,3.641918055483812054e-03
2.239734966680407524e+01,3.644457096351754084e-03
2.249761500000022352e+01,3.647005748321269572e-03
2.259759300004225224e+01,3.649543398951447283e-03
2.269774766673799604e+01,3.652081838058324724e-03
2.279768499999772757e+01,3.654611087583048770e-03
2.289751233346760273e+01,3.657133887048933350e-03
2.299785700009670109e+01,3.659666072087251320e-03
2.309748200001195073e+01,3.662176441971902278e-03
2.319763366668485105e+01,3.664696415699636878e-03
2.329778600006829947e+01,3.667212731646311667e-03
2.339740599994547665e+01,3.669712029120966810e-03
2.349754900007974356e+01,3.672220786186401482e-03
2.359782533335965127e+01,3.674729205296998862e-03
2.369777366681955755e+01,3.677225756548193995e-03
2.379777833342086524e+01,3.679720053896033075e-03
2.389772766677197069e+01,3.682209310453942591e-03
2.399750366667285562e+01,3.684690597628968462e-03
2.409748366661369801e+01,3.687173294480425474e-03
2.419742400012910366e+01,3.689651337591974729e-03
2.429757766670081764e+01,3.692130986214789586e-03
2.439769766677636653e+01,3.694607863513166279e-03
2.449751833337359130e+01,3.697075325828972497e-03
2.459747100004460663e+01,3.699542754425107563e-03
2.469759266672190279e+01,3.702011061311375525e-03
2.479750700003933161e+01,3.704470983888898811e-03
2.489770566660445184e+01,3.706934636474686160e-03
2.499781366682145745e+01,3.709392802107546773e-03
2.509765566675923765e+01,3.711841205439247657e-03
2.519762033328879625e+01,3.714289397001065661e-03
2.529788033349905163e+01,3.716741597516316775e-03
2.539795566676184535e+01,3.719186073591968650e-03
2.549811233335640281e+01,3.721629339399885536e-03
2.559759999997913837e+01,3.724053130478475852e-03
2.569806633330881596e+01,3.726497585065749376e-03
2.579804466664791107e+01,3.728927005366744311e-03
2.589803166664205492e+01,3.731353493684399537e-03
2.599772200000006706e+01,3.733769664300873054e-03
2.609761933342088014e+01,3.736187739023026991e-03
2.619804099993780255e+01,3.738615375065504516e-03
2.629750266682822257e+01,3.741016719748076029e-03
2.639769233344122767e+01,3.743432547678057949e-03
2.649762133334297687e+01,3.745839007433427077e-03
2.659776433347724378e+01,3.748247541267638906e-03
2.669772200006991625e+01,3.750648552566428467e-03
2.679774700012058020e+01,3.753048124732517865e-03
2.689765100006479770e+01,3.755441750755652945e-03
2.699749300000257790e+01,3.757830860955415232e-03
2.709757800004445016e+01,3.760222753575114766e-03
2.719754866673611104e+01,3.762608890937835411e-03
2.729738000012002885e+01,3.764988695534121979e-03
2.739759666670579463e+01,3.767374670890660283e-03
2.749722866679076105e+01,3.769743739312762798e-03
2.759733466664329171e+01,3.772121507357187754e-03
2.769753233331721276e+01,3.774498764235230917e-03
2.779731033334974200e+01,3.776863171219104962e-03
2.789762633340433240e+01,3.779237427060703602e-03
2.799756699998397380e+01,3.781599918347065131e-03
2.809733500005677342e+01,3.783955469594331607e-03
2.819740866671781987e+01,3.786315378565075287e-03
2.829765433329157531e+01,3.788676482483066023e-03
2.839754333335440606e+01,3.791026347096060952e-03
2.849781566672027111e+01,3.793382389106279839e-03
2.859748533344827592e+01,3.795721459634309944e-03
2.869779900007415563e+01,3.798072823209533086e-03
2.879755633347667754e+01,3.800408349213070264e-03
2.889743100013583899e+01,3.802743836899638488e-03
2.899778333341237158e+01,3.805087696234170109e-03
2.909773766668513417e+01,3.807419480180861907e-03
2.919751733343582600e+01,3.809744431073403860e-03
2.929746200004592538e+01,3.812070472128661121e-03
2.939753300009761006e+01,3.814396699583019832e-03
2.949767499999143183e+01,3.816721827078101668e-03
2.959749499999452382e+01,3.819036748036729826e-03
2.969775233347900212e+01,3.821359075167138873e-03
2.979771266668103635e+01,3.823671800479312884e-03
2.989747366670053452e+01,3.825977211327319730e-03
2.999731266673188657e+01,3.828281728910842060e-03
3.009754233341664076e+01,3.830592558488557769e-03
3.019771933346055448e+01,3.832899472230931297e-03
3.029782133351545781e+01,3.835201967916343317e-03
3.039772066660225391e+01,3.837497126942257530e-03
3.049774600006639957e+01,3.839792510028037023e-03
3.059752800012938678e+01,3.842079652822310513e-03
3.069746433326508850e+01,3.844367680244987952e-03
3.079752366663888097e+01,3.846656105241156882e-03
3.089752933336421847e+01,3.848940784006959093e-03
3.099760600004810840e+01,3.851224481228805816e-03
3.109768800018355250e+01,3.853505703163457707e-03
3.119746900012250990e+01,3.855777486449634816e-03
3.129752966668456793e+01,3.858053059840953550e-03
3.139756300020962954e+01,3.860325439201195766e-03
3.149746533343568444e+01,3.862592282972784723e-03
3.159760166681371629e+01,3.864861876457669713e-03
3.169786499999463558e+01,3.867131787741175455e-03
3.179746466665528715e+01,3.869384143983835289e-03
3.189762133336625993e+01,3.871646560381369635e-03
3.199733700009528548e+01,3.873896495649296716e-03
3.209769533330108970e+01,3.876158400129758527e-03
3.219757933332584798e+01,3.878407098744733258e-03
3.229765033337753266e+01,3.880657497454950526e-03
3.239778633334208280e+01,3.882906849584007516e-03
3.249783233343623579e+01,3.885151680557602776e-03
3.259746500011533499e+01,3.887384760342736494e-03
3.269755799998529255e+01,3.889625674799290517e-03
3.279766733339056373e+01,3.891864471692462520e-03
3.289770900004077703e+01,3.894099280210980979e-03
3.299761233350727707e+01,3.896328535092552850e-03
3.309769700001925230e+01,3.898559373421503146e-03
3.319748833344783634e+01,3.900781224729511342e-03
3.329742099996656179e+01,3.903003777817917654e-03
3.339754233346320689e+01,3.905228078586266572e-03
3.349777366674970835e+01,3.907452373604702357e-03
3.359779766679275781e+01,3.909669629397870792e-03
3.369762766663916409e+01,3.911880161143427119e-03
3.379772966669406742e+01,3.914094289497345273e-03
3.389769800007343292e+01,3.916303041357712712e-03
3.399777233332861215e+01,3.918511963562319733e-03
3.409744266676716506e+01,3.920709665885506109e-03
3.419757966673932970e+01,3.922915288269691013e-03
3.429780500009655952e+01,3.925120484012969285e-03
3.439740900008473545e+01,3.927309663727086668e-03
3.449774600018281490e+01,3.929512596197361034e-03
3.459767166676465422e+01,3.931704151834844452e-03
3.469758466666098684e+01,3.933893094964517091e-03
3.479777800000738353e+01,3.936085841240268175e-03
3.489742566668428481e+01,3.938264328542158237e-03
3.499756666668690741e+01,3.940451278914416065e-03
3.509764100017491728e+01,3.942634453474571678e-03
3.519758333335630596e+01,3.944812439401848038e-03
3.529753500013612211e+01,3.946988326446905331e-03
3.539766800007782876e+01,3.949165857783683634e-03
3.549771000002510846e+01,3.951339113402973537e-03
3.559740266657900065e+01,3.953502501828617087e-03
3.569745433353818953e+01,3.955671399199083525e-03
3.579734466667287052e+01,3.957834524208839015e-03
3.589737833337858319e+01,3.959998480133465268e-03
3.599764199997298419e+01,3.962165134070429369e-03
3.609768033341970295e+01,3.964324651281023008e-03
3.619754566682968289e+01,3.966478179882589571e-03
3.629789600020740181e+01,3.968639903467046336e-03
3.639741233328823000e+01,3.970781424940789638e-03
3.649736066663172096e+01,3.972930005958518786e-03
3.659772466658614576e+01,3.975085271514917917e-03
3.669787766668014228e+01,3.977233761952275737e-03
3.679772133345250040e+01,3.979373389750731280e-03
3.689786166686099023e+01,3.981517146195290638e-03
3.699753466667607427e+01,3.983648685941850419e-03
3.709755933342967182e+01,3.985785531701045541e-03
3.719756033329758793e+01,3.987919658447258882e-03
3.729729100014083087e+01,3.990045815932053916e-03
3.739740066661033779e+01,3.992177847741683674e-03
3.749734766676556319e+01,3.994304214882321742e-03
3.759749566682148725e+01,3.996432657008140883e-03
3.769772366667166352e+01,3.998560597120654099e-03
3.779772033332847059e+01,4.000681434098704754e-03
3.789763933338690549e+01,4.002798440944676725e-03
3.799772166670300066e+01,4.004916724630561142e-03
3.809776933328248560e+01,4.007032093787976298e-03
3.819773199991323054e+01,4.009143491623953087e-03
3.829742533329408616e+01,4.011247039657127311e-03
3.839777599996887147e+01,4.013362281485969435e-03
3.849768200004473329e+01,4.015465985005741215e-03
3.859760700003243983e+01,4.017567930638421894e-03
3.869743833341635764e+01,4.019665754004154642e-03
3.879771200020331889e+01,4.021770710268478613e-03
3.889747966686263680e+01,4.023862897000179441e-03
3.899782733339816332e+01,4.025965088859721069e-03
3.909758066665381193e+01,4.028052688004696465e-03
3.919757866661529988e+01,4.030143266800307461e-03
3.929779800004325807e+01,4.032236325237678609e-03
3.939791366667486727e+01,4.034325074691207276e-03
3.949746400001458824e+01,4.036399907309426785e-03
3.959742233343422413e+01,4.038481116941388879e-03
3.969767699996009469e+01,4.040566358587408674e-03
3.979736266680993140e+01,4.042637644936090610e-03
