Time [s],Voltage [V]
0.000000000000000000e+00,4.798415775342040890e-03
9.736866655293852091e-02,4.808862328933179858e-03
1.974559999071061611e-01,4.816524563409024275e-03
2.980626665521413088e-01,4.823922965479572611e-03
3.977823331952095032e-01,4.830957461037546988e-03
4.982209998415783048e-01,4.837963168830223919e-03
5.981983332894742489e-01,4.844747340073342692e-03
6.980096666375175118e-01,4.851404349686568029e-03
7.980816665804013610e-01,4.857962629192971553e-03
8.984473332529887557e-01,4.864462603390247442e-03
9.978909998899325728e-01,4.870796906837286840e-03
1.097823999938555062e+00,4.877075321663686819e-03
1.197634333278983831e+00,4.883257527351487354e-03
1.297625666600652039e+00,4.889348801164011826e-03
1.397355333203449845e+00,4.895330380274899064e-03
1.497510999906808138e+00,4.901243277557881632e-03
1.597291666548699141e+00,4.907054207656453768e-03
1.698358333320356905e+00,4.912867871140136171e-03
1.797680666670203209e+00,4.918500662151116185e-03
1.897470666561275721e+00,4.924079578781623799e-03
1.997786666615866125e+00,4.929606678373409101e-03
2.098001999896951020e+00,4.935046916671763026e-03
2.198253666516393423e+00,4.940407809091394535e-03
2.297862999839708209e+00,4.945667500145694770e-03
2.397790999966673553e+00,4.950896302915652400e-03
2.498105333186686039e+00,4.956074629464938056e-03
2.597989999921992421e+00,4.961160402845866957e-03
2.697671999922022223e+00,4.966165848414311711e-03
2.797791666584089398e+00,4.971122872112794001e-03
2.898139333352446556e+00,4.976020390002904373e-03
2.997797333169728518e+00,4.980855759096411775e-03
3.097722666687332094e+00,4.985651312280223180e-03
3.197820333298295736e+00,4.990397521526333119e-03
3.297942333272658288e+00,4.995087199452508814e-03
3.397874333313666284e+00,4.999710449853342169e-03
3.497829666594043374e+00,5.004277286250470927e-03
3.597678999998606741e+00,5.008794712337586059e-03
3.698025666642934084e+00,5.013300801793383471e-03
3.797864999854937196e+00,5.017735437308417507e-03
3.898136999923735857e+00,5.022140426184943697e-03
3.997687333263456821e+00,5.026465268987216975e-03
4.097782999975606799e+00,5.030765137778804401e-03
4.197263333247974515e+00,5.034990224100046284e-03
4.297772999969311059e+00,5.039236614994988851e-03
4.397945666569285095e+00,5.043428313770881646e-03
4.497939000022597611e+00,5.047571206096767953e-03
4.597652999917045236e+00,5.051661432616575201e-03
4.697862333268858492e+00,5.055730636166761230e-03
4.797830666648223996e+00,5.059748759041213760e-03
4.898027000017464161e+00,5.063740843693001481e-03
4.997745333239436150e+00,5.067683044208318340e-03
5.097734333248808980e+00,5.071601005115456903e-03
5.198037666617892683e+00,5.075496922094835904e-03
5.298145666602067649e+00,5.079351729560760073e-03
5.397564666578546166e+00,5.083147642475652206e-03
5.497348999953828752e+00,5.086925855896168129e-03
5.597639999934472144e+00,5.090692094851834680e-03
5.697385666659101844e+00,5.094407657319469269e-03
5.797864666557870805e+00,5.098120882783393516e-03
5.897556333220563829e+00,5.101776384716445907e-03
5.997801333200186491e+00,5.105424214578723613e-03
6.097728666616603732e+00,5.109033366758815829e-03
6.197845999849960208e+00,5.112622992003016884e-03
6.297400666517205536e+00,5.116167031460228977e-03
6.397822666680440307e+00,5.119717082689673876e-03
6.497432333300821483e+00,5.123214529930259463e-03
6.598194333259016275e+00,5.126729029733149978e-03
6.698428333271294832e+00,5.130202550301801029e-03
6.797787999967113137e+00,5.133624342905702791e-03
6.897713666665367782e+00,5.137044892658098813e-03
6.998275333316996694e+00,5.140467013520653473e-03
7.097937999991700053e+00,5.143839334173573238e-03
7.197866666596382856e+00,5.147202243369808708e-03
7.297926666564308107e+00,5.150551885895420130e-03
7.398108333232812583e+00,5.153888660987952439e-03
7.497500999947078526e+00,5.157172361466739151e-03
7.598060666583478451e+00,5.160470387928371185e-03
7.697816333267837763e+00,5.163723511580069377e-03
7.798266999889165163e+00,5.166981162054262548e-03
7.897334666689857841e+00,5.170176638895598170e-03
7.998074333299882710e+00,5.173408921635138866e-03
8.097543999901972711e+00,5.176584020286603693e-03
8.197790999896824360e+00,5.179767921083645171e-03
8.297592666582204401e+00,5.182922221536183024e-03
8.397953999927267432e+00,5.186079173057259184e-03
8.497287999955005944e+00,5.189189466342729491e-03
8.597803333308547735e+00,5.192322738485249597e-03
8.697920666658319533e+00,5.195430107975218190e-03
8.798189999884925783e+00,5.198529210278162414e-03
8.898216999950818717e+00,5.201608387894518515e-03
8.998050999944098294e+00,5.204669750896387045e-03
9.097833000007085502e+00,5.207705705579370944e-03
9.197543333284556866e+00,5.210723213403370933e-03
9.297945333179086447e+00,5.213748113532310109e-03
9.397911333246156573e+00,5.216746705644105184e-03
9.497682999935932457e+00,5.219726687206491418e-03
9.597806999925523996e+00,5.222704680777321556e-03
9.697572999983094633e+00,5.225659883647249676e-03
9.797499333275482059e+00,5.228608009701732513e-03
9.898137666634283960e+00,5.231565507869151768e-03
9.997730333358049393e+00,5.234481106868501057e-03
1.009764233324676752e+01,5.237395213580436915e-03
1.019760833331383765e+01,5.240300352434544909e-03
1.029824899998493493e+01,5.243214773897580082e-03
1.039763366663828492e+01,5.246082980625742936e-03
1.049804966652300209e+01,5.248971344196509681e-03
1.059837199992034584e+01,5.251847697788926926e-03
1.069731166656129062e+01,5.254666649654655443e-03
1.079759533330798149e+01,5.257513407728164716e-03
1.089782733330503106e+01,5.260348567578523003e-03
1.099781333329156041e+01,5.263166901712157744e-03
1.109747833327855915e+01,5.265966602400484059e-03
1.119768666662275791e+01,5.268772141565636509e-03
1.129756633331999183e+01,5.271559298868154497e-03
1.139774933329317719e+01,5.274345938271980672e-03
1.149748433323111385e+01,5.277111403407338044e-03
1.159773066663183272e+01,5.279882510878284620e-03
1.169790899986401200e+01,5.282643414243947365e-03
1.179776366660371423e+01,5.285387339783550152e-03
1.189741799992043525e+01,5.288117962119454583e-03
1.199760066659655422e+01,5.290855432579846633e-03
1.209769800002686679e+01,5.293583156437846327e-03
1.219804933329578489e+01,5.296309564022497890e-03
1.229812833317555487e+01,5.299013991525321904e-03
1.239808099996298552e+01,5.301706723787590406e-03
1.249751933326479048e+01,5.304377518038698620e-03
1.259753533324692398e+01,5.307055827655655575e-03
1.269790766655933112e+01,5.309735745852936159e-03
1.279755566664971411e+01,5.312388594090864530e-03
1.289774433325510472e+01,5.315048202945858204e-03
1.299797933327499777e+01,5.317701515208425600e-03
1.309814566664863378e+01,5.320345621873323431e-03
1.319779166660737246e+01,5.322968796586879763e-03
1.329780499998014420e+01,5.325594555311731829e-03
1.339783799985889345e+01,5.328213861044529993e-03
1.349810800002887845e+01,5.330832510286387556e-03
1.359826033329591155e+01,5.333441360878422161e-03
1.369805499992799014e+01,5.336034340605637361e-03
1.379823499987833202e+01,5.338629872761740600e-03
1.389829466666560620e+01,5.341213069440531487e-03
1.399811099993530661e+01,5.343783133728735070e-03
1.409768633323255926e+01,5.346340266081955721e-03
1.419805666652973741e+01,5.348911106753271617e-03
1.429803933319635689e+01,5.351465414143961007e-03
1.439803966658655554e+01,5.354013671648190538e-03
1.449801299988757819e+01,5.356554833308209244e-03
1.459813566657248884e+01,5.359093461060026632e-03
1.469807599997147918e+01,5.361621239954137731e-03
1.479769166663754731e+01,5.364134708030030008e-03
1.489780033333227038e+01,5.366654572170786661e-03
1.499811766657512635e+01,5.369173703606355992e-03
1.509828166663646698e+01,5.371683098937749846e-03
1.519771299988497049e+01,5.374168412752315313e-03
1.529809266666416079e+01,5.376671735110998517e-03
1.539771166653372347e+01,5.379149030541003490e-03
1.549752500001341105e+01,5.381623362294253067e-03
1.559788233321160078e+01,5.384105079883157521e-03
1.569761033332906663e+01,5.386565228596578575e-03
1.579793000000063330e+01,5.389033985210217766e-03
1.589782233326695859e+01,5.391486311321608271e-03
1.599739366653375328e+01,5.393924936102308977e-03
1.609748766652774066e+01,5.396370556952193726e-03
1.619802566664293408e+01,5.398821220774846150e-03
1.629740466654766351e+01,5.401237967810959550e-03
1.639751633326523006e+01,5.403666889731448784e-03
1.649765233322978020e+01,5.406090789629761431e-03
1.659772133326623589e+01,5.408507513203612317e-03
1.669744133320637047e+01,5.410910337146256771e-03
1.679795066663064063e+01,5.413326707263791358e-03
1.689788266655523330e+01,5.415723802757390834e-03
1.699788099993020296e+01,5.418117157627283693e-03
1.709740066668018699e+01,5.420493813105596928e-03
1.719793633325025439e+01,5.422889474233999474e-03
1.729753366659861058e+01,5.425257617734546844e-03
1.739808333327528089e+01,5.427643250465554771e-03
1.749809199990704656e+01,5.430010963067322810e-03
1.759777133329771459e+01,5.432365885579240779e-03
1.769781766668893397e+01,5.434724518718102478e-03
1.779813466651830822e+01,5.437084596945078452e-03
1.789785433327779174e+01,5.439425776258389501e-03
1.799785033334046602e+01,5.441768644363841403e-03
1.809809899993706495e+01,5.444112661600557408e-03
1.819745099998544902e+01,5.446431052348045879e-03
1.829765266657341272e+01,5.448764623544955291e-03
1.839790633332449943e+01,5.451094788725631760e-03
1.849778266658540815e+01,5.453411644277937446e-03
1.859789566660765558e+01,5.455728102666711904e-03
1.869793133321218193e+01,5.458037717126933142e-03
1.879808699991554022e+01,5.460345508970084090e-03
1.889742333325557411e+01,5.462629927274412732e-03
1.899808966659475118e+01,5.464940411157491462e-03
1.909815833333414048e+01,5.467232713628389709e-03
1.919766399986110628e+01,5.469507751704439334e-03
1.929758566664531827e+01,5.471787963857562866e-03
1.939785966661293060e+01,5.474071892962983563e-03
1.949806000001262873e+01,5.476349864058438661e-03
1.959774066659156233e+01,5.478611821247729961e-03
1.969816099992021918e+01,5.480886373459556600e-03
1.979801666655112058e+01,5.483144011927288709e-03
1.989795433334074914e+01,5.485399432740667262e-03
1.999760599993169308e+01,5.487644388636919376e-03
2.009737833321560174e+01,5.489888096418969222e-03
2.019770366651937366e+01,5.492140284146818444e-03
2.029815366666298360e+01,5.494391342318520263e-03
2.039805599988903850e+01,5.496626274773911205e-03
2.049764366657473147e+01,5.498850389227059876e-03
2.059810266655404121e+01,5.501090187094232614e-03
2.069777766661718488e+01,5.503308802331336944e-03
2.079767299990635365e+01,5.505528666881283686e-03
2.089823533326853067e+01,5.507759703840976913e-03
2.099831999989692122e+01,5.509976553795306251e-03
2.109823066659737378e+01,5.512186023692293435e-03
2.119783766660839319e+01,5.514385316676923519e-03
2.129801599995698780e+01,5.516593784254755078e-03
2.139842833334114403e+01,5.518803994340501506e-03
2.149729266669601202e+01,5.520976834445629269e-03
2.159752466657664627e+01,5.523176439695858149e-03
2.169754433329217136e+01,5.525367708776010751e-03
2.179751399985980242e+01,5.527548801356169106e-03
2.189774599997326732e+01,5.529731857460747774e-03
2.199750499997753650e+01,5.531900901192045653e-03
2.209774066659156233e+01,5.534076608804929832e-03
2.219759466662071645e+01,5.536240372009513903e-03
2.229771666659507900e+01,5.538406302830307763e-03
2.239763533324003220e+01,5.540564229326042089e-03
2.249778333317954093e+01,5.542723522308835339e-03
2.259800233319401741e+01,5.544880779873692829e-03
2.269765133329201490e+01,5.547022258613899803e-03
2.279768699989654124e+01,5.549168555068535562e-03
2.289793199987616390e+01,5.551315861277414214e-03
2.299758699990343302e+01,5.553447102662704277e-03
2.309779066662304103e+01,5.555586661077347756e-03
2.319772566657047719e+01,5.557717098322098939e-03
2.329744533332996070e+01,5.559839603718533078e-03
2.339798833325039595e+01,5.561976282490879372e-03
2.349791433324571699e+01,5.564096543233212899e-03
2.359794966655317694e+01,5.566215850660723510e-03
2.369792299985419959e+01,5.568330600564963886e-03
2.379757699987385422e+01,5.570435395822647545e-03
2.389824166661128402e+01,5.572558322196200301e-03
2.399781866662669927e+01,5.574655159251463987e-03
2.409788499993737787e+01,5.576759170897671591e-03
2.419783666660077870e+01,5.578857667621542685e-03
2.429788500000722706e+01,5.580955115174261044e-03
2.439783366664778441e+01,5.583047425595960220e-03
2.449789433332625777e+01,5.585139057271348503e-03
2.459749799990095198e+01,5.587218159375410137e-03
2.469768633320927620e+01,5.589306497606234478e-03
2.479789766657631844e+01,5.591392365520893651e-03
2.489789833326358348e+01,5.593469249147456357e-03
2.499755033326800913e+01,5.595533084067028269e-03
2.509798699989914894e+01,5.597609877843181744e-03
2.519768133328761905e+01,5.599668068742382800e-03
2.529813066660426557e+01,5.601738583871062813e-03
2.539815099991392344e+01,5.603797017313102112e-03
2.549801066657528281e+01,5.605848935156630165e-03
2.559760266658850014e+01,5.607892174412150259e-03
2.569766866660211235e+01,5.609941956410628011e-03
2.579772599996067584e+01,5.611988387009670884e-03
2.589799999992828816e+01,5.614036080193425017e-03
2.599768499995116144e+01,5.616068616188464938e-03
2.609779033320955932e+01,5.618106597984729757e-03
2.619825499993748963e+01,5.620148762434240032e-03
2.629760599986184388e+01,5.622165217791820317e-03
2.639783366653136909e+01,5.624196386578367117e-03
2.649747466668486595e+01,5.626212615232184869e-03
2.659778899990487844e+01,5.628239410978926396e-03
2.669815033324994147e+01,5.630264101406312442e-03
2.679763433325570077e+01,5.632268091880242300e-03
2.689748533326201141e+01,5.634276486210914106e-03
2.699811333324760199e+01,5.636297494854873406e-03
2.709827199985738844e+01,5.638306087954691320e-03
2.719735399994533509e+01,5.640290169850064629e-03
2.729747500002849847e+01,5.642292122760253492e-03
2.739795733324717730e+01,5.644298350019014490e-03
2.749814333324320614e+01,5.646295733091245654e-03
2.759756599995307624e+01,5.648275022863457999e-03
2.769758833327796310e+01,5.650263375910524050e-03
2.779813933325931430e+01,5.652259347319752575e-03
2.789757599995937198e+01,5.654230363241884161e-03
2.799795766663737595e+01,5.656217265884432369e-03
2.809821533330250531e+01,5.658197682061351201e-03
2.819850099994800985e+01,5.660175189017170767e-03
2.829772266652435064e+01,5.662128790789856120e-03
2.839796066656708717e+01,5.664099459975956326e-03
2.849801199999637902e+01,5.666063519390360410e-03
2.859772299998439848e+01,5.668017985884394108e-03
2.869773699995130301e+01,5.669975481511345394e-03
2.879814266669563949e+01,5.671937721628854054e-03
2.889818366663530469e+01,5.673889934241048774e-03
2.899830966664012522e+01,5.675840916662385459e-03
2.909774933324661106e+01,5.677775675383960920e-03
2.919773799995891750e+01,5.679718261927787018e-03
2.929811999993398786e+01,5.681665621863558717e-03
2.939768866659142077e+01,5.683594374644725979e-03
2.949770833330694586e+01,5.685529037458026194e-03
2.959760433330666274e+01,5.687458490971205802e-03
2.969804433325771242e+01,5.689395623436481995e-03
2.979808899993076921e+01,5.691322322460748602e-03
2.989749333332292736e+01,5.693233923398331557e-03
2.999764499987941235e+01,5.695157117615220685e-03
3.009801566659007221e+01,5.697081729658126995e-03
3.019766966660972685e+01,5.698989848993543661e-03
3.029752233321778476e+01,5.700899033561868286e-03
3.039770933333784342e+01,5.702811865625143084e-03
3.049811499984934926e+01,5.704726124384323395e-03
3.059789533319417387e+01,5.706625745705293414e-03
3.069753866654355079e+01,5.708520067748554076e-03
3.079784866666886955e+01,5.710424357822380635e-03
3.089747133327182382e+01,5.712312922553773598e-03
3.099785733327735215e+01,5.714213269736499734e-03
3.109795166656840593e+01,5.716105419140053365e-03
3.119784766656812280e+01,5.717991155105713388e-03
3.129811799991875887e+01,5.719880650348602331e-03
3.139748833328485489e+01,5.721750509740686566e-03
3.149790133326314390e+01,5.723637291226459783e-03
3.159783333330415189e+01,5.725512350533291939e-03
3.169787899998482317e+01,5.727386868788443205e-03
3.179759266658220440e+01,5.729252512785127510e-03
3.189794266654644161e+01,5.731127396303767503e-03
3.199778433330357075e+01,5.732990136307384958e-03
3.209751699992921203e+01,5.734848215980943922e-03
3.219755399995483458e+01,5.736709336618278816e-03
3.229830833326559514e+01,5.738581149905361972e-03
3.239815399993676692e+01,5.740433463981897688e-03
3.249778333329595625e+01,5.742279175342033734e-03
3.259828033321537077e+01,5.744138348903185184e-03
3.269770066661294550e+01,5.745975031356369278e-03
3.279742099985014647e+01,5.747814693553123314e-03
3.289759133325424045e+01,5.749660082137865273e-03
3.299762499995995313e+01,5.751500385540894017e-03
3.309776533325202763e+01,5.753340089891552551e-03
3.319768799992743880e+01,5.755173249416560902e-03
3.329794799990486354e+01,5.757010049867121622e-03
3.339815133332740515e+01,5.758843270746660803e-03
3.349796433327719569e+01,5.760666832972501962e-03
3.359804166667163372e+01,5.762492710324166809e-03
3.369751299999188632e+01,5.764305045014702852e-03
3.379764366662129760e+01,5.766126897363743967e-03
3.389819733332842588e+01,5.767953935250992245e-03
3.399783666664734483e+01,5.769761886351870359e-03
3.409766999993007630e+01,5.771570896470470079e-03
3.419743266666773707e+01,5.773376173532568725e-03
3.429759633331559598e+01,5.775186248870868219e-03
3.439749833324458450e+01,5.776988943071009568e-03
3.449776333326008171e+01,5.778795271879719024e-03
3.459777199989184737e+01,5.780594487527469794e-03
3.469792833330575377e+01,5.782393868823194200e-03
3.479776733322069049e+01,5.784185074525601683e-03
3.489786966657266021e+01,5.785978530874215896e-03
3.499813166656531394e+01,5.787772371401584889e-03
3.509799199993722141e+01,5.789556568465912753e-03
3.519807999988552183e+01,5.791342379259736134e-03
3.529791999992448837e+01,5.793121323991047567e-03
3.539823499985504895e+01,5.794906283246773968e-03
3.549785899987909943e+01,5.796676524138876137e-03
3.559806133317761123e+01,5.798454612366134991e-03
3.569749299995601177e+01,5.800216623387189491e-03
3.579789799998980016e+01,5.801993461491388587e-03
3.589809766656253487e+01,5.803764246897004896e-03
3.599832666665315628e+01,5.805533139703685126e-03
3.609749966661911458e+01,5.807281028733719472e-03
3.619794899993576109e+01,5.809049019157897648e-03
3.629792166664265096e+01,5.810806234661536687e-03
3.639747333328705281e+01,5.812553692215743743e-03
3.649774033320136368e+01,5.814311334233759551e-03
3.659798733319621533e+01,5.816066252452324614e-03
3.669791666651144624e+01,5.817813254435279073e-03
3.679778033320326358e+01,5.819556765781528501e-03
3.689784833323210478e+01,5.821301502027384153e-03
3.699805233324877918e+01,5.823046266323980355e-03
3.709795799991115928e+01,5.824783508209741695e-03
3.719820533320307732e+01,5.826524361556713848e-03
3.729751966660842299e+01,5.828246718041839997e-03
3.739763133320957422e+01,5.829980597127320044e-03
3.749751133332028985e+01,5.831708164045008164e-03
3.759766433329787105e+01,5.833438152817158918e-03
3.769753733323886991e+01,5.835161017966638761e-03
3.779799666663166136e+01,5.836891700257046227e-03
3.789778899995144457e+01,5.838608616920211436e-03
3.799763699993491173e+01,5.840324228738666065e-03
3.809787033323664218e+01,5.842044191639641018e-03
3.819747966667637229e+01,5.843751200450412672e-03
3.829755433334503323e+01,5.845463934988034439e-03
3.839818866655696183e+01,5.847183981671071409e-03
3.849790800001937896e+01,5.848886153927959977e-03
3.859755533328279853e+01,5.850584881046402320e-03
3.869746266666334122e+01,5.852285822965915506e-03
3.879795699997339398e+01,5.853994525214123446e-03
3.889753333327826113e+01,5.855685415819104206e-03
3.899793999991379678e+01,5.857388192425697603e-03
3.909762299992144108e+01,5.859076504022600954e-03
3.919796266662888229e+01,5.860773737804599211e-03
3.929748899990227073e+01,5.862455040501605465e-03
3.939809233322739601e+01,5.864152343509298343e-03
3.949809166660998017e+01,5.865837277341768956e-03
3.959821399999782443e+01,5.867522113800922694e-03
3.969776633323635906e+01,5.869195212206071086e-03
3.979771566658746451e+01,5.870872836257795720e-03
