Time [s],Voltage [V]
0.000000000000000000e+00,5.577693706871202084e-03
9.738433337770402431e-02,5.589315471496607464e-03
1.973279999801889062e-01,5.596972703997486580e-03
2.973510001320391893e-01,5.604304403830496009e-03
3.978830000851303339e-01,5.611398753169521622e-03
4.976513334549963474e-01,5.618323931953640715e-03
5.978586666751652956e-01,5.625136743407147671e-03
6.978740000631660223e-01,5.631766787386956706e-03
7.977763334056362510e-01,5.638333717828730197e-03
8.980043333722278476e-01,5.644884295545224764e-03
9.980426667025312781e-01,5.651394613142286631e-03
1.097697000019252300e+00,5.657852263044656910e-03
1.197443333454430103e+00,5.664033586690661072e-03
1.297507000039331615e+00,5.669934935807832005e-03
1.397958000074140728e+00,5.675646473351606512e-03
1.497759333346039057e+00,5.681245743720460782e-03
1.597904000082053244e+00,5.687118101412112769e-03
1.697595666744746268e+00,5.692993107823972332e-03
1.797597666736692190e+00,5.698915684820074490e-03
1.897539000026881695e+00,5.704429503433455090e-03
1.997889999998733401e+00,5.709748031824723145e-03
2.097324666683562100e+00,5.714829927370637143e-03
2.197645000065676868e+00,5.720015080901487067e-03
2.297837666701525450e+00,5.725392196851075526e-03
2.397608000086620450e+00,5.730789343376534693e-03
2.497805666644126177e+00,5.736141521728949262e-03
2.597357666702009737e+00,5.740917203430012314e-03
2.697556666680611670e+00,5.745723922683286869e-03
2.797390999970957637e+00,5.750513148091895149e-03
2.897826333297416568e+00,5.755276083136535124e-03
2.997400333289988339e+00,5.759982856324051027e-03
3.097730666631832719e+00,5.764725380553112517e-03
3.197725333389826119e+00,5.769334193087843551e-03
3.297959333402104676e+00,5.773912754257052617e-03
3.397822333383373916e+00,5.778474368465158148e-03
3.497891333303414285e+00,5.782947273560713232e-03
3.597934000077657402e+00,5.787376894481610634e-03
3.698165000067092478e+00,5.791814854138079005e-03
3.797456666710786521e+00,5.796172706133233092e-03
3.897626666701398790e+00,5.800522461547847480e-03
3.997944000060670078e+00,5.804846530606548073e-03
4.097949999966658652e+00,5.809125221592227259e-03
4.198097333312034607e+00,5.813377983045527574e-03
4.298127000103704631e+00,5.817593805185718690e-03
4.397820999962277710e+00,5.821755878127456672e-03
4.497967666713520885e+00,5.825895827198118368e-03
4.597617333289235830e+00,5.829979370903142291e-03
4.697603333392180502e+00,5.834040745176212808e-03
4.798167333356104791e+00,5.838089271985738918e-03
4.897992000100202858e+00,5.842072005141371073e-03
4.997357333311811090e+00,5.846008598184568479e-03
5.097614999976940453e+00,5.849956560247285969e-03
5.197620333288796246e+00,5.853863468089862826e-03
5.297780333319678903e+00,5.857745267571481604e-03
5.398015333339571953e+00,5.861598763932322764e-03
5.497730666771531105e+00,5.865401302790824653e-03
5.598240666789934039e+00,5.869202876471420194e-03
5.697593666729517281e+00,5.872929836054205724e-03
5.798067666706629097e+00,5.876667651363516424e-03
5.897926000063307583e+00,5.880351479941444033e-03
5.997651333338581026e+00,5.883999476663268752e-03
6.097830999991856515e+00,5.887632976781615943e-03
6.198162333341315389e+00,5.891250843045201142e-03
6.298238666728138924e+00,5.894853225494036883e-03
6.397640333394519985e+00,5.898405530488126311e-03
6.497631666716188192e+00,5.901952974462588986e-03
6.597584333387203515e+00,5.905473051167942772e-03
6.697618000092916191e+00,5.908969958439675742e-03
6.798163000028580427e+00,5.912458508012838169e-03
6.897925666766241193e+00,5.915893920190606198e-03
6.997970000025816262e+00,5.919313030309625301e-03
7.097520666662603617e+00,5.922689423174035822e-03
7.197910999995656312e+00,5.926068185539742038e-03
7.298014666652306914e+00,5.929411193419657777e-03
7.397420333349145949e+00,5.932710032885184920e-03
7.497419000021182001e+00,5.936035412942070391e-03
7.597319000051356852e+00,5.939337141115324549e-03
7.697690666653215885e+00,5.942633952857674824e-03
7.797789000091142952e+00,5.945901317108804457e-03
7.897674666717648506e+00,5.949141363015674616e-03
7.997598999994806945e+00,5.952362296450766817e-03
8.097481666714884341e+00,5.955561528892675156e-03
8.197951333364471793e+00,5.958759029431584878e-03
8.297769666649401188e+00,5.961915407150976051e-03
8.398091666633263230e+00,5.965067229846001719e-03
8.498051333357580006e+00,5.968187247074856899e-03
8.597813666681759059e+00,5.971280780234707389e-03
8.698073000065051019e+00,5.974397411933183959e-03
8.797708333353511989e+00,5.977479293400539059e-03
8.898037666687741876e+00,5.980566560480109033e-03
8.997442000079900026e+00,5.983609449818632839e-03
9.097410666756331921e+00,5.986653638385930690e-03
9.197547333431430161e+00,5.989686881455396662e-03
9.297662666649557650e+00,5.992703408627020507e-03
9.397760333376936615e+00,5.995703339777514081e-03
9.497795666684396565e+00,5.998685355490227661e-03
9.598045333405025303e+00,6.001657666502267091e-03
9.697687666746787727e+00,6.004596005623820919e-03
9.797770000062882900e+00,6.007531297758982383e-03
9.897999333334155381e+00,6.010464724450916008e-03
9.998050000052899122e+00,6.013381891297434230e-03
1.009762200003024191e+01,6.016272300729492983e-03
1.019762566674035043e+01,6.019162611940544888e-03
1.029763000004459172e+01,6.022040511300004277e-03
1.039742666680831462e+01,6.024900266600241583e-03
1.049763366673141718e+01,6.027759775911161431e-03
1.059785433334764093e+01,6.030607870261647796e-03
1.069747933337930590e+01,6.033427560534519903e-03
1.079769633337855339e+01,6.036252687703411342e-03
1.089799033338204026e+01,6.039068847143797686e-03
1.099793633329682052e+01,6.041864376259455972e-03
1.109773566666990519e+01,6.044645368023956328e-03
1.119808533345349133e+01,6.047431388932888313e-03
1.129809166665654629e+01,6.050197747653073346e-03
1.139788700011558831e+01,6.052948418339000429e-03
1.149825966672506183e+01,6.055705306780579007e-03
1.159781666670460254e+01,6.058430415296188129e-03
1.169780500000342727e+01,6.061158160906150033e-03
1.179730633331928402e+01,6.063863726105934993e-03
1.189792766666505486e+01,6.066590953777736654e-03
1.199823066673707217e+01,6.069300986481295651e-03
1.209783700003754348e+01,6.071983961311954066e-03
1.219771266670431942e+01,6.074666180198693907e-03
1.229825066670309752e+01,6.077355934216483249e-03
1.239797166665084660e+01,6.080012673454364414e-03
1.249763833335600793e+01,6.082659349898454637e-03
1.259800233331043273e+01,6.085315974385710133e-03
1.269740333338268101e+01,6.087938764111037668e-03
1.279772366664838046e+01,6.090577525289516542e-03
1.289769733336288482e+01,6.093199020216310928e-03
1.299770066677592695e+01,6.095813289187800715e-03
1.309813066676724702e+01,6.098430789967777127e-03
1.319816299993544817e+01,6.101030168421375278e-03
1.329757566668558866e+01,6.103605905909888565e-03
1.339730433328077197e+01,6.106182411656113640e-03
1.349756799999158829e+01,6.108765381749372073e-03
1.359739233332220465e+01,6.111329838132830913e-03
1.369752766669262201e+01,6.113895204059340872e-03
1.379739600000903010e+01,6.116446800122452010e-03
1.389776333339978009e+01,6.119004307241675614e-03
1.399796000006608665e+01,6.121550761876360519e-03
1.409793933341279626e+01,6.124085150531338728e-03
1.419753100001253188e+01,6.126603347044616565e-03
1.429776033340021968e+01,6.129131386572946733e-03
1.439759599999524653e+01,6.131643366280682857e-03
1.449817300005815923e+01,6.134167946611085789e-03
1.459737600001972169e+01,6.136652219461610595e-03
1.469785566674545407e+01,6.139162147679627299e-03
1.479806500009726733e+01,6.141655499923649557e-03
1.489805866673123091e+01,6.144137379334909874e-03
1.499795000010635704e+01,6.146610731761473732e-03
1.509746499999891967e+01,6.149068918694640916e-03
1.519819066673517227e+01,6.151551172735023228e-03
1.529804466676432639e+01,6.154006252093276869e-03
1.539734133332967758e+01,6.156442109688613044e-03
1.549721399997361004e+01,6.158886648894561916e-03
1.559820933337323368e+01,6.161353216020855339e-03
1.569793433346785605e+01,6.163783483939375488e-03
1.579750566673465073e+01,6.166204881338380531e-03
1.589772800006903708e+01,6.168637041663014436e-03
1.599758800002746284e+01,6.171055455476612099e-03
1.609754966676700860e+01,6.173471483127742493e-03
1.619741066673304886e+01,6.175880337787817594e-03
1.629769066674634814e+01,6.178294636506622556e-03
1.639792633336037397e+01,6.180703302660946717e-03
1.649798200000077486e+01,6.183103195801388681e-03
1.659744333336129785e+01,6.185484532421416624e-03
1.669759666663594544e+01,6.187878207742628610e-03
1.679750633332878351e+01,6.190261934501110896e-03
1.689753000007476658e+01,6.192644358150174201e-03
1.699811666668392718e+01,6.195036237317630076e-03
1.709752800001297146e+01,6.197396374977447511e-03
1.719823966675903648e+01,6.199775900280972418e-03
1.729806166666094214e+01,6.202127634561972400e-03
1.739732733333949000e+01,6.204461580313750703e-03
1.749779066676273942e+01,6.206818989028054130e-03
1.759826500003691763e+01,6.209171987431034816e-03
1.769763633341062814e+01,6.211494619016486203e-03
1.779761633346788585e+01,6.213826981283148039e-03
1.789762599999085069e+01,6.216155580578482977e-03
1.799799100006930530e+01,6.218488030928521343e-03
1.809775399998761714e+01,6.220802157067655859e-03
1.819779566675424576e+01,6.223118464878192937e-03
1.829812866670545191e+01,6.225437267952955295e-03
1.839816533331759274e+01,6.227745041864161252e-03
1.849730833340436220e+01,6.230028136749679590e-03
1.859753933339379728e+01,6.232332231546055916e-03
1.869757466670125723e+01,6.234627819948690072e-03
1.879763600009027869e+01,6.236920055690177260e-03
1.889783733338117599e+01,6.239211597379670619e-03
1.899737500003539026e+01,6.241484152470070691e-03
1.909725533344317228e+01,6.243760771442315519e-03
1.919777900003828108e+01,6.246048308758626010e-03
1.929798766667954624e+01,6.248324995137859682e-03
1.939817366667557508e+01,6.250597547882224062e-03
1.949753500008955598e+01,6.252847876856425756e-03
1.959755866671912372e+01,6.255106521297282979e-03
1.969784266676288098e+01,6.257362929734599892e-03
1.979826200008392334e+01,6.259618055259846825e-03
1.989752400002907962e+01,6.261842955100948085e-03
1.999772100010886788e+01,6.264084563029707550e-03
2.009735200006980449e+01,6.266309296146300480e-03
2.019756100000813603e+01,6.268542720043257001e-03
2.029742733330931515e+01,6.270764321442838345e-03
2.039762566669378430e+01,6.272989130664230820e-03
2.049783366674091667e+01,6.275209990437427728e-03
2.059793133335188031e+01,6.277424268734890442e-03
2.069790633337106556e+01,6.279631728301916967e-03
2.079767633334267884e+01,6.281830592397748443e-03
2.089769600005820394e+01,6.284030899919617469e-03
2.099750100006349385e+01,6.286222455008221369e-03
2.109809566673357040e+01,6.288427297592207033e-03
2.119816100003663450e+01,6.290616523221558704e-03
2.129772200004663318e+01,6.292790761896792547e-03
2.139750066678971052e+01,6.294965818867184586e-03
2.149791400006506592e+01,6.297150754891053803e-03
2.159786566672846675e+01,6.299321725327287035e-03
2.169813566666562110e+01,6.301495701604886875e-03
2.179812499997206032e+01,6.303659715625239274e-03
2.189743033342529088e+01,6.305805115085628791e-03
2.199750100006349385e+01,6.307963122254798931e-03
2.209790066664572805e+01,6.310123403025477522e-03
2.219746100006159395e+01,6.312261723469303129e-03
2.229796833335421979e+01,6.314416459553507874e-03
2.239755266672000289e+01,6.316547535613429090e-03
2.249757966678589582e+01,6.318684220501024316e-03
2.259755433339159936e+01,6.320815933806523020e-03
2.269791600003372878e+01,6.322952039950310160e-03
2.279766033345367759e+01,6.325071191842750705e-03
2.289826833340339363e+01,6.327204856555353023e-03
2.299734500003978610e+01,6.329302295473629263e-03
2.309779366676229984e+01,6.331424996842376432e-03
2.319765733345411718e+01,6.333531576430069358e-03
2.329755566664971411e+01,6.335635152838249920e-03
2.339780866669025272e+01,6.337742458550009103e-03
2.349750666669569910e+01,6.339834399598523462e-03
2.359777133341412991e+01,6.341934527055666064e-03
2.369798033335246146e+01,6.344029793354974758e-03
2.379773633333388716e+01,6.346111934718431762e-03
2.389818233333062381e+01,6.348204811289039073e-03
2.399794033332727849e+01,6.350279727133981839e-03
2.409749733342323452e+01,6.352346875834108397e-03
2.419771600002422929e+01,6.354424160375479400e-03
2.429803366668056697e+01,6.356499893086592357e-03
2.439772566675674170e+01,6.358559123733256886e-03
2.449792400002479553e+01,6.360625031424937265e-03
2.459778500010725111e+01,6.362680352701506788e-03
2.469798400008585304e+01,6.364739066511099046e-03
2.479827533336356282e+01,6.366796117005555505e-03
2.489765933342278004e+01,6.368831057995310088e-03
2.499775433342438191e+01,6.370877050632443167e-03
2.509774066670797765e+01,6.372917323379780064e-03
2.519803866674192250e+01,6.374960457341984424e-03
2.529750566673465073e+01,6.376983217240104508e-03
2.539791766670532525e+01,6.379021728482061476e-03
2.549755733332131058e+01,6.381041132237158346e-03
2.559805033344309777e+01,6.383074386489949285e-03
2.569809866673313081e+01,6.385095222678658852e-03
2.579781566665042192e+01,6.387105984229668812e-03
2.589771200006362051e+01,6.389116990816365825e-03
2.599765766668133438e+01,6.391125628354755485e-03
2.609741666668560356e+01,6.393127175301813181e-03
2.619800400012172759e+01,6.395141978833392832e-03
2.629796033340971917e+01,6.397140812652120020e-03
2.639768800011370331e+01,6.399131779653911486e-03
2.649776266678236425e+01,6.401126381149858241e-03
2.659758333337958902e+01,6.403112648451806006e-03
2.669770466675981879e+01,6.405101630802384136e-03
2.679740033333655447e+01,6.407078919665540849e-03
2.689742799999658018e+01,6.409059915111182081e-03
2.699773566669318825e+01,6.411043777981820409e-03
2.709806333330925554e+01,6.413024916366152905e-03
2.719742633332498372e+01,6.414983948843615627e-03
2.729785566672217101e+01,6.416960932500715732e-03
2.739847200002986938e+01,6.418938518655702488e-03
2.749843066674657166e+01,6.420900145988826281e-03
2.759771433344576508e+01,6.422845553268803978e-03
2.769811700005084276e+01,6.424809891629527231e-03
2.779788333340547979e+01,6.426758815715732237e-03
2.789755633333697915e+01,6.428702984020212216e-03
2.799776466668117791e+01,6.430654658145861652e-03
2.809790566668380052e+01,6.432602098629000738e-03
2.819804233347531408e+01,6.434546552546433276e-03
2.829773633333388716e+01,6.436479546359070991e-03
2.839779766672290862e+01,6.438416807310033685e-03
2.849770866672042757e+01,6.440348322354065569e-03
2.859750433336012065e+01,6.442274798041870004e-03
2.869720366678666323e+01,6.444196628646261908e-03
2.879744300001766533e+01,6.446126080384611233e-03
2.889781166671309620e+01,6.448055239445455063e-03
2.899826600006781518e+01,6.449983276501725440e-03
2.909757600002922118e+01,6.451886646113162531e-03
2.919798033335246146e+01,6.453808275235853320e-03
2.929747933335602283e+01,6.455709903325762729e-03
2.939777999999932945e+01,6.457624177550851108e-03
2.949772566673345864e+01,6.459529023333860330e-03
2.959809600003063679e+01,6.461439316249331655e-03
2.969827833340968937e+01,6.463343405207442986e-03
2.979828466672915965e+01,6.465241551328063975e-03
2.989751466666348279e+01,6.467122415573919522e-03
2.999770966661162674e+01,6.469019015575930634e-03
3.009772833331953734e+01,6.470909735418026339e-03
3.019744733336847275e+01,6.472792280386069179e-03
3.029775033344049007e+01,6.474683340785825948e-03
3.039775466674473137e+01,6.476566283296965321e-03
3.049809799995273352e+01,6.478453131623941250e-03
3.059772633342072368e+01,6.480324098958306807e-03
3.069819333334453404e+01,6.482208376604556288e-03
3.079750466672703624e+01,6.484068590495905594e-03
3.089757833338808268e+01,6.485940699788408578e-03
3.099764533340930939e+01,6.487810310211882328e-03
3.109773600008338690e+01,6.489678006637966678e-03
3.119813766668085009e+01,6.491549157740810101e-03
3.129742700001224875e+01,6.493397283901067296e-03
3.139757700008340180e+01,6.495259137031974932e-03
3.149817499995697290e+01,6.497127019191363019e-03
3.159827566670719534e+01,6.498983398162693631e-03
3.169811966677661985e+01,6.500832781420955511e-03
3.179806633340194821e+01,6.502677307545443215e-03
3.189751000003889203e+01,6.504508499380277572e-03
3.199735633342061192e+01,6.506344513348354987e-03
3.209773833339568228e+01,6.508187767219980602e-03
3.219792766671162099e+01,6.510024882446343968e-03
3.229750333342235535e+01,6.511848179391075547e-03
3.239734466664958745e+01,6.513673781350325792e-03
3.249743266671430320e+01,6.515501329899850425e-03
3.259748333331663162e+01,6.517325640045628504e-03
3.269752300006803125e+01,6.519147202537621533e-03
3.279785400000400841e+01,6.520971520439703024e-03
3.289783566666301340e+01,6.522786955470638408e-03
3.299769800005014986e+01,6.524597710382809036e-03
3.309774466673843563e+01,6.526409297677319803e-03
3.319769733340945095e+01,6.528216682768765884e-03
3.329798800009302795e+01,6.530027676861072279e-03
3.339762700011488050e+01,6.531824429500207412e-03
3.349816966673824936e+01,6.533634986813194497e-03
3.359770700009539723e+01,6.535424984263042344e-03
3.369763166666962206e+01,6.537219497972641784e-03
3.379740000003948808e+01,6.539008764589827882e-03
3.389814266678877175e+01,6.540813040459578752e-03
3.399801666673738509e+01,6.542599322787093566e-03
3.409761533339042217e+01,6.544378273979408606e-03
3.419756600004620850e+01,6.546161104858773568e-03
3.429794700001366436e+01,6.547949193109294137e-03
3.439780500007327646e+01,6.549725569062601026e-03
3.449775500001851469e+01,6.551501197180460700e-03
3.459810666670091450e+01,6.553281569823226141e-03
3.469776133343111724e+01,6.555047214404483361e-03
3.479796600004192442e+01,6.556820238776569360e-03
3.489747700002044439e+01,6.558578651194008242e-03
3.499739400006365031e+01,6.560341902173016763e-03
3.509798966674134135e+01,6.562114774154749822e-03
3.519803333340678364e+01,6.563875582512416172e-03
3.529839600005652755e+01,6.565639674152253837e-03
3.539749200001824647e+01,6.567379219043961713e-03
3.549750333337578923e+01,6.569132541136063139e-03
3.559761433338280767e+01,6.570885314560712814e-03
3.569774299999698997e+01,6.572636108349657127e-03
3.579779000009875745e+01,6.574383196555121621e-03
3.589734266675077379e+01,6.576119401200062817e-03
3.599777400004677474e+01,6.577868663186180187e-03
3.609732600010465831e+01,6.579600371254531142e-03
3.619775799999479204e+01,6.581345137770055510e-03
3.629766100004781038e+01,6.583078481660092907e-03
3.639765300008002669e+01,6.584811148853439433e-03
3.649758800002746284e+01,6.586540617093978450e-03
3.659751566674094647e+01,6.588267640195950153e-03
3.669814799993764609e+01,6.590002837488810258e-03
3.679739233339205384e+01,6.591711817863639758e-03
3.689746833336539567e+01,6.593432829415057234e-03
3.699783500004559755e+01,6.595156536366206246e-03
3.709809666674118489e+01,6.596876143564391927e-03
3.719741366675589234e+01,6.598577292015410552e-03
3.729748599999584258e+01,6.600289112962102848e-03
3.739806966669857502e+01,6.602007395912308160e-03
3.749786966666579247e+01,6.603710033898617902e-03
3.759752266667783260e+01,6.605407926662990037e-03
3.769757100008428097e+01,6.607110312524309623e-03
3.779767500003799796e+01,6.608811403071999414e-03
3.789747466670814902e+01,6.610505095481984325e-03
3.799792166671250015e+01,6.612207535366950578e-03
3.809781833342276514e+01,6.613898427081411902e-03
3.819742800004314631e+01,6.615582262143869172e-03
3.829758833337109536e+01,6.617273198412822535e-03
3.839740600006189197e+01,6.618956153881164380e-03
3.849767533340491354e+01,6.620644524074659719e-03
3.859806000010576099e+01,6.622332633470512028e-03
3.869811400002799928e+01,6.624012995468629705e-03
3.879748433339409530e+01,6.625679721098999726e-03
3.889767700002994388e+01,6.627358072178885992e-03
3.899754200002644211e+01,6.629028775118128887e-03
3.909763166680932045e+01,6.630701079996365564e-03
3.919738400005735457e+01,6.632365606891577232e-03
3.929737366666086018e+01,6.634031954652589921e-03
3.939775200001895428e+01,6.635702631599681676e-03
3.949771733337547630e+01,6.637364302153353317e-03
3.959795666672289371e+01,6.639028396837755308e-03
3.969784300005994737e+01,6.640684515612311524e-03
3.979732000001240522e+01,6.642331754984250047e-03
