Time [s],Voltage [V]
0.000000000000000000e+00,2.591341890764962269e-03
9.742500004358589649e-02,2.600621303414193085e-03
1.977720001013949513e-01,2.608314228091340985e-03
2.979476667242124677e-01,2.615727758708535217e-03
3.978356666630133986e-01,2.622923984985565862e-03
4.978196666343137622e-01,2.629997361384981205e-03
5.978166667046025395e-01,2.636941206138526672e-03
6.977003334322944283e-01,2.643734654920917426e-03
7.971623333869501948e-01,2.650362037594122550e-03
8.973896667594090104e-01,2.656932534896385301e-03
9.976663333363831043e-01,2.663388039930006824e-03
1.097682000021450222e+00,2.669708754997544321e-03
1.198050000006332994e+00,2.675933561266496952e-03
1.298250333406031132e+00,2.682069012282043037e-03
1.397873666719533503e+00,2.688067622064390164e-03
1.497334000072441995e+00,2.693955448084192628e-03
1.597978333360515535e+00,2.699811231951719862e-03
1.697380666737444699e+00,2.705532443106256624e-03
1.797478666645474732e+00,2.711207730839912660e-03
1.897849333356134593e+00,2.716811862223575055e-03
1.997838666778989136e+00,2.722309053523576210e-03
2.097370666684582829e+00,2.727723701198656904e-03
2.197368000051937997e+00,2.733089185265742162e-03
2.298217000090517104e+00,2.738424758236601263e-03
2.397411333397030830e+00,2.743599020470360861e-03
2.498203666764311492e+00,2.748795083500368570e-03
2.598013666691258550e+00,2.753874925079001588e-03
2.698207000037655234e+00,2.758910469671234898e-03
2.797694666776806116e+00,2.763849114496863026e-03
2.897851999965496361e+00,2.768761485892004374e-03
2.997827666695229709e+00,2.773607044455274079e-03
3.097718999953940511e+00,2.778392625168745519e-03
3.197617333382368088e+00,2.783124552856196688e-03
3.297785333357751369e+00,2.787816938110721735e-03
3.397405333467759192e+00,2.792433573543669570e-03
3.497537999995984137e+00,2.797025529076463922e-03
3.597393666626885533e+00,2.801557959943583049e-03
3.698073333362117410e+00,2.806075829310133041e-03
3.797855333425104618e+00,2.810507860500121094e-03
3.897734666708856821e+00,2.814900321357261502e-03
3.997570333303883672e+00,2.819248496445452348e-03
4.098227333277463913e+00,2.823591106833934355e-03
4.197286000009626150e+00,2.827825747650941114e-03
4.297982333344407380e+00,2.832092269654534408e-03
4.397996333427727222e+00,2.836292657817464802e-03
4.498191333375871181e+00,2.840456224605943537e-03
4.597390000009909272e+00,2.844541945182683332e-03
4.697824000031687319e+00,2.848642745082560074e-03
4.797649666666984558e+00,2.852684147261286794e-03
4.897453000070527196e+00,2.856691337891529604e-03
4.997456333367154002e+00,2.860674291547241760e-03
5.097924333298578858e+00,2.864644375369681476e-03
5.197811333346180618e+00,2.868560755777315764e-03
5.297344000078737736e+00,2.872426842701174439e-03
5.397532999981194735e+00,2.876287730189669087e-03
5.497275999980047345e+00,2.880101653876183162e-03
5.597547000041231513e+00,2.883906638781852817e-03
5.698037000023759902e+00,2.887691457375017156e-03
5.797710000071674585e+00,2.891418158528414988e-03
5.897660666727460921e+00,2.895128706888503746e-03
5.997891333303414285e+00,2.898823340204296616e-03
6.097685666638426483e+00,2.902472956022465311e-03
6.197772000101394951e+00,2.906107553906322506e-03
6.297926333383657038e+00,2.909719509005648241e-03
6.398106000036932528e+00,2.913307897171393129e-03
6.497750333277508616e+00,2.916853465814197612e-03
6.598126666736789048e+00,2.920401888856856594e-03
6.698047999991104007e+00,2.923911755301715227e-03
6.797535666730254889e+00,2.927384186682703039e-03
6.897502333391457796e+00,2.930847732693453098e-03
6.997761666774749756e+00,2.934299073820918584e-03
7.098178666667081416e+00,2.937733871889263142e-03
7.197667666710913181e+00,2.941115696482503837e-03
7.297454666695557535e+00,2.944486875553923699e-03
7.397794333402998745e+00,2.947856203036130010e-03
7.497821999946609139e+00,2.951195026824874126e-03
7.597439666744321585e+00,2.954500745010752404e-03
7.697779666632413864e+00,2.957811298291258308e-03
7.797820999985560775e+00,2.961093335666257088e-03
7.898026333423331380e+00,2.964362531191016420e-03
7.997551333275623620e+00,2.967591931314629040e-03
8.097491666674613953e+00,2.970817612072975365e-03
8.198181666783057153e+00,2.974050522969148673e-03
8.298150333343073726e+00,2.977243884243016558e-03
8.397311666747555137e+00,2.980395277192255526e-03
8.497751999995671213e+00,2.983569098283712483e-03
8.597783999983221292e+00,2.986714355634073961e-03
8.697755666682496667e+00,2.989842512658750454e-03
8.797389333369210362e+00,2.992945379951044912e-03
8.897457666695117950e+00,2.996047409231460297e-03
8.998080333345569670e+00,2.999152511804721588e-03
9.098063333425670862e+00,3.002224273162151270e-03
9.197262333356775343e+00,3.005258954153671239e-03
9.297635333379730582e+00,3.008316787802281771e-03
9.397448666626587510e+00,3.011345251017909491e-03
9.497430999996140599e+00,3.014366935482800693e-03
9.597608333453536034e+00,3.017382973871446904e-03
9.697782666655257344e+00,3.020387784662795921e-03
9.798139000078663230e+00,3.023387301721789256e-03
9.897973000071942806e+00,3.026360939242047059e-03
9.997258333372883499e+00,3.029305921482743774e-03
1.009728200000245124e+01,3.032252318450575843e-03
1.019750666676554829e+01,3.035193125798283081e-03
1.029734633339103311e+01,3.038111450116147937e-03
1.039768866670783609e+01,3.041033489441037456e-03
1.049739999999292195e+01,3.043926520530616624e-03
1.059754300012718886e+01,3.046821677631881067e-03
1.069728533341549337e+01,3.049695161448950833e-03
1.079753766674548388e+01,3.052573461335702110e-03
1.089791699999477714e+01,3.055445758808923631e-03
1.099810733331833035e+01,3.058303292372135680e-03
1.109751533332746476e+01,3.061129542735159439e-03
1.119804300006944686e+01,3.063978810684707486e-03
1.129765933332964778e+01,3.066793772417157529e-03
1.139798566664103419e+01,3.069620540273720194e-03
1.149815233342815191e+01,3.072434813689768531e-03
1.159793166664894670e+01,3.075228219699890821e-03
1.169727333332411945e+01,3.077994225337194779e-03
1.179738999996334314e+01,3.080772867869491401e-03
1.189762233337387443e+01,3.083545894187956354e-03
1.199752966675441712e+01,3.086301305616511326e-03
1.209739599993918091e+01,3.089047146803844401e-03
1.219758100004401058e+01,3.091793437024773807e-03
1.229745500010903925e+01,3.094523079651084405e-03
1.239762766670901328e+01,3.097252904429079797e-03
1.249810466670896858e+01,3.099983160310676791e-03
1.259812400001101196e+01,3.102693325375973678e-03
1.269732566666789353e+01,3.105373953770176366e-03
1.279750466672703624e+01,3.108073696678280862e-03
1.289794900000561029e+01,3.110773396423305043e-03
1.299808566668070853e+01,3.113457822908460588e-03
1.309765000001061708e+01,3.116120137339725531e-03
1.319733100011944771e+01,3.118777454112745331e-03
1.329768433340359479e+01,3.121441737348525959e-03
1.339761033339891583e+01,3.124087305198538535e-03
1.349774266674648970e+01,3.126731063069940544e-03
1.359759433334693313e+01,3.129360264925189726e-03
1.369801766669843346e+01,3.131997427218322864e-03
1.379765399999450892e+01,3.134606997288058410e-03
1.389739233336877078e+01,3.137212433722046025e-03
1.399743933335412294e+01,3.139819197019300904e-03
1.409782566665671766e+01,3.142428125498014820e-03
1.419796833337750286e+01,3.145024162878018101e-03
1.429771633341442794e+01,3.147603561252527646e-03
1.439780133333988488e+01,3.150185350599609465e-03
1.449791433336213231e+01,3.152761629709048379e-03
1.459760133340023458e+01,3.155320856269971681e-03
1.469801166665274650e+01,3.157892614087356303e-03
1.479739433340728283e+01,3.160431558323310765e-03
1.489736233337316662e+01,3.162978070526887165e-03
1.499750766670331359e+01,3.165522900002243345e-03
1.509746133338194340e+01,3.168056728171504254e-03
1.519789066666271538e+01,3.170596501261615900e-03
1.529782633332069963e+01,3.173117760611293605e-03
1.539758033340331167e+01,3.175628489819858936e-03
1.549741900002118200e+01,3.178135450223283469e-03
1.559727933339308947e+01,3.180637097932047935e-03
1.569757666671648622e+01,3.183143843273376732e-03
1.579774466669186950e+01,3.185641549124362641e-03
1.589779600000474602e+01,3.188130595039572693e-03
1.599814833339769393e+01,3.190621396347580879e-03
1.609729133336804807e+01,3.193076581315429374e-03
1.619741566665470600e+01,3.195550455674345605e-03
1.629745233338326216e+01,3.198016566117776495e-03
1.639753466669935733e+01,3.200478357308124584e-03
1.649747966672293842e+01,3.202931510494998277e-03
1.659759066672995687e+01,3.205383316893360094e-03
1.669734600000083447e+01,3.207821051306729288e-03
1.679798833339009434e+01,3.210275072458715524e-03
1.689813400001730770e+01,3.212711643051776363e-03
1.699774699995759875e+01,3.215130000252981735e-03
1.709792966675013304e+01,3.217556932612873968e-03
1.719738400005735457e+01,3.219961036184705756e-03
1.729743800009600818e+01,3.222374449123820671e-03
1.739745800010859966e+01,3.224781867617431807e-03
1.749743566662073135e+01,3.227183120461582771e-03
1.759781200008001179e+01,3.229588794091117331e-03
1.769766800000797957e+01,3.231976893025292289e-03
1.779739833343774080e+01,3.234356924161709695e-03
1.789751600008457899e+01,3.236741127483767477e-03
1.799780866666696966e+01,3.239124840096240313e-03
1.809763900004327297e+01,3.241493319889255948e-03
1.819748500012792647e+01,3.243857422113629804e-03
1.829742233338765800e+01,3.246218967149073001e-03
1.839738766674418002e+01,3.248576485893758369e-03
1.849730899999849498e+01,3.250928316845056853e-03
1.859761500009335577e+01,3.253284560724967710e-03
1.869759766675997525e+01,3.255628616384721903e-03
1.879766599996946752e+01,3.257970122933149994e-03
1.889749933336861432e+01,3.260301620455740342e-03
1.899802300008013844e+01,3.262644721176289567e-03
1.909799833339639008e+01,3.264970575801441101e-03
1.919733633345458657e+01,3.267277224306818634e-03
1.929725966672413051e+01,3.269593091575232532e-03
1.939762933342717588e+01,3.271914918870337790e-03
1.949746066669467837e+01,3.274219964153583448e-03
1.959760600002482533e+01,3.276527951423024131e-03
1.969742100010626018e+01,3.278824061023935966e-03
1.979730366670992225e+01,3.281117493519608921e-03
1.989726933336351067e+01,3.283408619175974194e-03
1.999755633343011141e+01,3.285702902211010915e-03
2.009775200008880347e+01,3.287990914400270095e-03
2.019813266664277762e+01,3.290278986522304598e-03
2.029775800008792430e+01,3.292545745664411747e-03
2.039822233340237290e+01,3.294827487538701423e-03
2.049734400003217161e+01,3.297074717249771393e-03
2.059815100010018796e+01,3.299356087221007143e-03
2.069753266673069447e+01,3.301601207335505030e-03
2.079775799997150898e+01,3.303861394366356796e-03
2.089748733339365572e+01,3.306106438932408277e-03
2.099743766675237566e+01,3.308352519848675472e-03
2.109764900000300258e+01,3.310600528827898053e-03
2.119774299999698997e+01,3.312841739513923151e-03
2.129763466666918248e+01,3.315074213256771936e-03
2.139760100003331900e+01,3.317304419112626201e-03
2.149775533343199641e+01,3.319534884398684348e-03
2.159803733334410936e+01,3.321764260666953787e-03
2.169804066664073616e+01,3.323983536665983327e-03
2.179750766674987972e+01,3.326187054164618951e-03
2.189782333339098841e+01,3.328405488946390312e-03
2.199744266667403281e+01,3.330604676195240456e-03
2.209789166669361293e+01,3.332818306455791711e-03
2.219814799993764609e+01,3.335023823118598348e-03
2.229773766675498337e+01,3.337210857380983227e-03
2.239765733340755105e+01,3.339401324179419508e-03
2.249815333343576640e+01,3.341600579438586648e-03
2.259770533337723464e+01,3.343775380235681702e-03
2.269772233336698264e+01,3.345956541167804769e-03
2.279763966670725495e+01,3.348131732902027979e-03
2.289782966673374176e+01,3.350309056283002230e-03
2.299788166675716639e+01,3.352479583427206075e-03
2.309793133335188031e+01,3.354646269171078846e-03
2.319794733333401382e+01,3.356808440031745604e-03
2.329818799998611212e+01,3.358971672235502599e-03
2.339807900006417185e+01,3.361123580228431856e-03
2.349788533337414265e+01,3.363269898418344821e-03
2.359775266668293625e+01,3.365413761029723873e-03
2.369811333331745118e+01,3.367564417262863125e-03
2.379784300003666431e+01,3.369697780287519984e-03
2.389782600000035018e+01,3.371832787041688720e-03
2.399789166671689600e+01,3.373965771792130676e-03
2.409751700004562736e+01,3.376085603648279389e-03
2.419756533333566040e+01,3.378210649979333791e-03
2.429787566675804555e+01,3.380337447818445272e-03
2.439738933334592730e+01,3.382445302078682364e-03
2.449785833340138197e+01,3.384571261682774689e-03
2.459785766666755080e+01,3.386683854553854903e-03
2.469760766671970487e+01,3.388787785864291920e-03
2.479765666672028601e+01,3.390894631820908292e-03
2.489810833334922791e+01,3.393006552876429160e-03
2.499799366667866707e+01,3.395103197714135438e-03
2.509743099997285753e+01,3.397187113913764135e-03
2.519763333338778466e+01,3.399283718875652921e-03
2.529756666673347354e+01,3.401371364805671170e-03
2.539769466663710773e+01,3.403459753584515274e-03
2.549727599998004735e+01,3.405533452244340585e-03
2.559721466677729040e+01,3.407611306683058349e-03
2.569763166666962206e+01,3.409695802699899518e-03
2.579773666674736887e+01,3.411770537172246522e-03
2.589791066665202379e+01,3.413843429404892459e-03
2.599821933335624635e+01,3.415915838958843639e-03
2.609778333338908851e+01,3.417969638627710045e-03
2.619725366670172662e+01,3.420018307918756828e-03
2.629753566673025489e+01,3.422080468117243840e-03
2.639756800001487136e+01,3.424134276989076759e-03
2.649795466673094779e+01,3.426192140074846033e-03
2.659815199999138713e+01,3.428242913964418218e-03
2.669751200010068715e+01,3.430273393964717362e-03
2.679726900008972734e+01,3.432308834141768045e-03
2.689808066678233445e+01,3.434362593130090447e-03
2.699746500002220273e+01,3.436384133092073613e-03
2.709763833333272487e+01,3.438418574105534323e-03
2.719792933331336826e+01,3.440452247110217798e-03
2.729745733330491930e+01,3.442467332292932156e-03
2.739748599997255951e+01,3.444489434194345640e-03
2.749756733339745551e+01,3.446509477775251164e-03
2.759799799998290837e+01,3.448533860236121205e-03
2.769820866675581783e+01,3.450550995367852956e-03
2.779767900006845593e+01,3.452550230868527397e-03
2.789734033332206309e+01,3.454550320491575361e-03
2.799749833333771676e+01,3.456557377853333984e-03
2.809769866662099957e+01,3.458562284463579089e-03
2.819755866669584066e+01,3.460557406832136078e-03
2.829741566663142294e+01,3.462549509674666282e-03
2.839773366670124233e+01,3.464547838866340219e-03
2.849732566671445966e+01,3.466528770612034658e-03
2.859728200000245124e+01,3.468514017457830986e-03
2.869777299999259412e+01,3.470506932039633778e-03
2.879730166669469327e+01,3.472477854004341058e-03
2.889754033344797790e+01,3.474459919822682485e-03
2.899765000003390014e+01,3.476436522970593329e-03
2.909784100006800145e+01,3.478411827103798908e-03
2.919812233338598162e+01,3.480386010729482650e-03
2.929800833342596889e+01,3.482349534362328726e-03
2.939784600003622472e+01,3.484309246526101286e-03
2.949759399995673448e+01,3.486264349820353010e-03
2.959817466663662344e+01,3.488232898429978815e-03
2.969761066662613302e+01,3.490176213363753964e-03
2.979795400006696582e+01,3.492134415419708218e-03
2.989779199997428805e+01,3.494079926741387385e-03
2.999786366673652083e+01,3.496027166882276736e-03
3.009790933330077678e+01,3.497971081523691770e-03
3.019803433329798281e+01,3.499913722138636545e-03
3.029793600004632026e+01,3.501849229310520679e-03
3.039763400005176663e+01,3.503778008714815689e-03
3.049728733336087316e+01,3.505703153345877000e-03
3.059770566667430103e+01,3.507640281064507409e-03
3.069728333340026438e+01,3.509558427084084973e-03
3.079744800005573779e+01,3.511485341111888255e-03
3.089721800002735108e+01,3.513402035677740815e-03
3.099763833335600793e+01,3.515328491070625425e-03
3.109784566669259220e+01,3.517248135073270873e-03
3.119815199996810406e+01,3.519166956900849578e-03
3.129763166676275432e+01,3.521067285866412259e-03
3.139741966675501317e+01,3.522970831785253356e-03
3.149748033331707120e+01,3.524876898177421898e-03
3.159749666671268642e+01,3.526779444486918044e-03
3.169770899997092783e+01,3.528683043434865420e-03
3.179763366666156799e+01,3.530578518108143556e-03
3.189746300003025681e+01,3.532469539013501254e-03
3.199752333329524845e+01,3.534362289097288303e-03
3.209741733327973634e+01,3.536249256453738010e-03
3.219737200008239597e+01,3.538134739776539577e-03
3.229767766676377505e+01,3.540024205946395910e-03
3.239746200013905764e+01,3.541901235801954862e-03
3.249787666671909392e+01,3.543787495184593482e-03
3.259806833334732801e+01,3.545666944672020565e-03
3.269746299996040761e+01,3.547528862749079956e-03
3.279762733331881464e+01,3.549402604107259121e-03
3.289744566660374403e+01,3.551267287672688067e-03
3.299742966669145972e+01,3.553132484498471369e-03
3.309798600000794977e+01,3.555005757953870645e-03
3.319807566667441279e+01,3.556867753862972062e-03
3.329750433342996985e+01,3.558714905894906980e-03
3.339758400002028793e+01,3.560571593608350197e-03
3.349767566670197994e+01,3.562425941968248334e-03
3.359772066667210311e+01,3.564276870519471514e-03
3.369788366672582924e+01,3.566127428030947590e-03
3.379785933345556259e+01,3.567971980869570972e-03
3.389771833340637386e+01,3.569811849198713943e-03
3.399741600011475384e+01,3.571646467021432313e-03
3.409763133327942342e+01,3.573488177722275796e-03
3.419750600005500019e+01,3.575321143097261265e-03
3.429773033340461552e+01,3.577158038471275631e-03
3.439767366671003401e+01,3.578987308662007032e-03
3.449778833345044404e+01,3.580817242909351081e-03
3.459762433334253728e+01,3.582639625885120083e-03
3.469782033341471106e+01,3.584466118599946832e-03
3.479740166675765067e+01,3.586278968845056300e-03
3.489753000007476658e+01,3.588099332707103163e-03
3.499763833335600793e+01,3.589916888365411035e-03
3.509814066672697663e+01,3.591739144352928091e-03
3.519812700001057237e+01,3.593549611088513694e-03
3.529764666664414108e+01,3.595349223120896179e-03
3.539756766671780497e+01,3.597153684263176138e-03
3.549757166672497988e+01,3.598957233610095528e-03
3.559761466667987406e+01,3.600759078532803775e-03
3.569778466667048633e+01,3.602560803240057244e-03
3.579770933336112648e+01,3.604355720134090439e-03
3.589757133345119655e+01,3.606147126562280272e-03
3.599737033341079950e+01,3.607935026054635060e-03
3.609787066665012389e+01,3.609733093798393050e-03
3.619807299994863570e+01,3.611523441071888812e-03
3.629819100000895560e+01,3.613309904050114596e-03
3.639811166666913778e+01,3.615090481198528563e-03
3.649742333334870636e+01,3.616857869850652243e-03
3.659737033338751644e+01,3.618634218309761674e-03
3.669735166663303971e+01,3.620408825992213302e-03
3.679809066664893180e+01,3.622194508174933145e-03
3.689798233332112432e+01,3.623962822511123116e-03
3.699772700003813952e+01,3.625726205866458985e-03
3.709788166661746800e+01,3.627494500497472664e-03
3.719757033337373286e+01,3.629252246228842349e-03
3.729783200006932020e+01,3.631017763495182279e-03
3.739791033335495740e+01,3.632777724449069538e-03
3.749737533333245665e+01,3.634524598901550836e-03
3.759743166679982096e+01,3.636279548762604008e-03
3.769774999993387610e+01,3.638036771936690658e-03
3.779788800003007054e+01,3.639788521316235544e-03
3.789778400002978742e+01,3.641533736514673651e-03
3.799809066671878099e+01,3.643283817695654007e-03
3.809753000002820045e+01,3.645016486511800519e-03
3.819741133332718164e+01,3.646754575435835581e-03
3.829742100008297712e+01,3.648492610088984248e-03
3.839755700004752725e+01,3.650230550381288255e-03
3.849762833339627832e+01,3.651965082590343491e-03
3.859742733335588127e+01,3.653692622033639491e-03
3.869735466665588319e+01,3.655420112440022941e-03
3.879788600001484156e+01,3.657155755028201893e-03
3.889738533331546932e+01,3.658871322395650279e-03
3.899771999998483807e+01,3.660599020814998654e-03
3.909764366666786373e+01,3.662317377745894463e-03
3.919787900010123849e+01,3.664038826923204061e-03
3.929761233332101256e+01,3.665749403606059428e-03
3.939805533341132104e+01,3.667469885411133324e-03
3.949747833341825753e+01,3.669170658102694112e-03
3.959766166668850929e+01,3.670882188194880130e-03
3.969734233338385820e+01,3.672582892457232004e-03
3.979773899994324893e+01,3.674293558470087366e-03
