Time [s],Voltage [V]
0.000000000000000000e+00,1.117247970868058072e-03
9.757799992803484201e-02,1.131093600351520349e-03
1.976606666576117277e-01,1.144531146404303892e-03
2.973153332713991404e-01,1.157647258838872574e-03
3.976686665555462241e-01,1.170634129141958886e-03
4.973459999309852719e-01,1.183382537180195041e-03
5.976019998779520392e-01,1.196052187196393769e-03
6.975003333063796163e-01,1.208510489618069925e-03
7.976543332915753126e-01,1.220838798844443851e-03
8.976553332759067416e-01,1.233016610224806206e-03
9.974039999069646001e-01,1.245023550541258465e-03
1.097787666600197554e+00,1.256965276022623239e-03
1.197562333196401596e+00,1.268693744383392590e-03
1.297489999909885228e+00,1.280339886283769378e-03
1.397458999883383512e+00,1.291866889261878999e-03
1.497505999985150993e+00,1.303278274189697584e-03
1.597750333254225552e+00,1.314587137411672626e-03
1.697439666604623199e+00,1.325749829646429229e-03
1.797552333213388920e+00,1.336852170796617653e-03
1.897447333205491304e+00,1.347822423941204446e-03
1.997386999893933535e+00,1.358689678320378763e-03
2.097453999915160239e+00,1.369492314691434084e-03
2.197628666530363262e+00,1.380210485415988859e-03
2.297784999827854335e+00,1.390830338352050388e-03
2.397421999950893223e+00,1.401299525632733033e-03
2.497654333245009184e+00,1.411749487220080156e-03
2.597593666636385024e+00,1.422082568930178002e-03
2.697355666547082365e+00,1.432313200913697083e-03
2.797452999860979617e+00,1.442495693624916420e-03
2.897632333217188716e+00,1.452606327581016732e-03
2.997588999918662012e+00,1.462616258044252115e-03
3.097693999996408820e+00,1.472564748769184017e-03
3.197384999948553741e+00,1.482398228663286445e-03
3.297433333238586783e+00,1.492194862563825559e-03
3.397633666521869600e+00,1.501936019966164512e-03
3.497675666585564613e+00,1.511593563702179864e-03
3.597611666657030582e+00,1.521174806206166416e-03
3.697371999965980649e+00,1.530668075068013874e-03
3.797521666623651981e+00,1.540133381772361290e-03
3.897422333247959614e+00,1.549511900543314126e-03
3.997711333213374019e+00,1.558864981984244436e-03
4.097735666669905186e+00,1.568133259197829199e-03
4.197355999960564077e+00,1.577306056796277424e-03
4.297433333238586783e+00,1.586464247494137701e-03
4.397224666550755501e+00,1.595541264312143586e-03
4.497419333201833069e+00,1.604591149947076070e-03
4.597417666693218052e+00,1.613567810096348289e-03
4.697784333257004619e+00,1.622523038539930209e-03
4.797615999937988818e+00,1.631377609751030093e-03
4.897842666483484209e+00,1.640215365302404634e-03
4.997447333182208240e+00,1.648948036023603061e-03
5.097656999831087887e+00,1.657684450466549025e-03
5.197290999931283295e+00,1.666322778513508462e-03
5.297747666598297656e+00,1.674976654796473449e-03
5.397416333202272654e+00,1.683514140136120260e-03
5.497675333288498223e+00,1.692054341748145752e-03
5.597218666574917734e+00,1.700486989239523381e-03
5.697494333260692656e+00,1.708935631160539599e-03
5.797341666650027037e+00,1.717303158827942003e-03
5.897679999819956720e+00,1.725667471576829842e-03
5.997627333272248507e+00,1.733955784297008113e-03
6.097813666565343738e+00,1.742217118671199067e-03
6.197445333236828446e+00,1.750389881454918802e-03
6.297432333347387612e+00,1.758549568934330946e-03
6.397639666567556560e+00,1.766685523273217552e-03
6.497485999949276447e+00,1.774751354839636166e-03
6.597484999918378890e+00,1.782789408700819183e-03
6.697795333340764046e+00,1.790812885470360796e-03
6.797638999996706843e+00,1.798760233438574186e-03
6.897469666553661227e+00,1.806663541285711367e-03
6.997273666551336646e+00,1.814525773188970740e-03
7.097704666550271213e+00,1.822398589862811620e-03
7.197290333337150514e+00,1.830167214926920393e-03
7.297434333246201277e+00,1.837941828338182388e-03
7.397708333330228925e+00,1.845689307749710881e-03
7.497506999876350164e+00,1.853363591115040395e-03
7.597667666617780924e+00,1.861029647057660212e-03
7.697850666590966284e+00,1.868661788992813768e-03
7.797789333271794021e+00,1.876240336876288956e-03
7.897265333333052695e+00,1.883749615977158920e-03
7.997539000003598630e+00,1.891285110338708150e-03
8.097312666592188179e+00,1.898749664375829664e-03
8.197633999865502119e+00,1.906222154095704897e-03
8.297522666514851153e+00,1.913630018339064574e-03
8.397679666639305651e+00,1.921025722949612751e-03
8.497338333167135715e+00,1.928350528757926882e-03
8.597589666605927050e+00,1.935687375176152903e-03
8.697428333223797381e+00,1.942963075822754133e-03
8.797529999981634319e+00,1.950227414180570173e-03
8.897233999916352332e+00,1.957432979333183394e-03
8.997442666557617486e+00,1.964645409434170702e-03
9.097411999944597483e+00,1.971811512536233036e-03
9.197463999968022108e+00,1.978954913921699386e-03
9.297705333330668509e+00,1.986083588987587033e-03
9.397738999919965863e+00,1.993169788394869718e-03
9.497618666617199779e+00,2.000217937705023319e-03
9.597739999997429550e+00,2.007256396863380497e-03
9.697274999925866723e+00,2.014227566480007378e-03
9.797483333153650165e+00,2.021220110538158275e-03
9.897576999966986477e+00,2.028179301786346960e-03
9.997374666621908545e+00,2.035092476737704933e-03
1.009770333324559033e+01,2.042004643260592837e-03
1.019761533325072378e+01,2.048861698231944396e-03
1.029751899989787489e+01,2.055692159661435137e-03
1.039778199989814311e+01,2.062521354822123391e-03
1.049753899988718331e+01,2.069290725014948790e-03
1.059762999997474253e+01,2.076057663052250334e-03
1.069747933326289058e+01,2.082783539502791343e-03
1.079776266659609973e+01,2.089514123140725262e-03
1.089756033325102180e+01,2.096188034057145256e-03
1.099732499988749623e+01,2.102836055759988061e-03
1.109729299985338002e+01,2.109474200875012875e-03
1.119771999993827194e+01,2.116119541138849515e-03
1.129735799995251000e+01,2.122689934634811471e-03
1.139756466657854617e+01,2.129275311489078806e-03
1.149753799987956882e+01,2.135823178682989647e-03
1.159772466658614576e+01,2.142362467828121814e-03
1.169739266659598798e+01,2.148836854805468051e-03
1.179771866661030799e+01,2.155330865414046421e-03
1.189763866655994207e+01,2.161775757501598234e-03
1.199765699997078627e+01,2.168204383112118383e-03
1.209763333329465240e+01,2.174607919818659016e-03
1.219762466661632061e+01,2.180990244170328760e-03
1.229772999999113381e+01,2.187357849337688738e-03
1.239768199995160103e+01,2.193693960102939891e-03
1.249748899997211993e+01,2.199999417885917935e-03
1.259751933324150741e+01,2.206297683807844842e-03
1.269763666659127921e+01,2.212580291693256804e-03
1.279746533324941993e+01,2.218823947553112338e-03
1.289749266649596393e+01,2.225059375748011416e-03
1.299771033332217485e+01,2.231286153676421274e-03
1.309724599996116012e+01,2.237450446930806802e-03
1.319776699994690716e+01,2.243655180203439625e-03
1.329752766655292362e+01,2.249787594717161422e-03
1.339757033321075141e+01,2.255916680893898726e-03
1.349763033329509199e+01,2.262026283766470705e-03
1.359729066654108465e+01,2.268091210754671384e-03
1.369774233328644186e+01,2.274183974916579691e-03
1.379737399984151125e+01,2.280207003426033569e-03
1.389763299992773682e+01,2.286248002870622416e-03
1.399772033328190446e+01,2.292258847081464143e-03
1.409731866663787514e+01,2.298220825651123983e-03
1.419748466659802943e+01,2.304197320199916511e-03
1.429754900000989437e+01,2.310148411083177630e-03
1.439757866656873375e+01,2.316078275158049184e-03
1.449775133328512311e+01,2.321997566565886344e-03
1.459775533329229802e+01,2.327888028651406514e-03
1.469738366652745754e+01,2.333737773917609476e-03
1.479737799998838454e+01,2.339590314791875191e-03
1.489780599996447563e+01,2.345447592313843876e-03
1.499737733323127031e+01,2.351236231399160721e-03
1.509769366658292711e+01,2.357049479290635342e-03
1.519751266657840461e+01,2.362815373939054081e-03
1.529732299991883337e+01,2.368562380449316419e-03
1.539767533331178129e+01,2.374322154173152434e-03
1.549767966661602259e+01,2.380043653467517166e-03
1.559730799996759742e+01,2.385725565872037161e-03
1.569747566664591432e+01,2.391420138969716381e-03
1.579757799988146871e+01,2.397092956475921008e-03
1.589774766657501459e+01,2.402751622145832093e-03
1.599735633318778127e+01,2.408360856710128201e-03
1.609730699984356761e+01,2.413971650453343096e-03
1.619768366659991443e+01,2.419588594460082582e-03
1.629748066666070372e+01,2.425155531339516675e-03
1.639720599993597716e+01,2.430701077612158843e-03
1.649773633328732103e+01,2.436274150827840226e-03
1.659754133329261094e+01,2.441789727569416805e-03
1.669766266667284071e+01,2.447305557802621247e-03
1.679745733330491930e+01,2.452786295789005470e-03
1.689775233319960535e+01,2.458277390096282131e-03
1.699764899990987033e+01,2.463729685413179778e-03
1.709768299991264939e+01,2.469172555286669457e-03
1.719760199997108430e+01,2.474592333341938972e-03
1.729769466666039079e+01,2.480004729801504881e-03
1.739738099987152964e+01,2.485378505518990276e-03
1.749754799983929843e+01,2.490761521114185847e-03
1.759789799991995096e+01,2.496137676494453173e-03
1.769760899990797043e+01,2.501463107701968648e-03
1.779813399992417544e+01,2.506815433289653200e-03
1.789752266660798341e+01,2.512090946406082652e-03
1.799776766658760607e+01,2.517395668691864430e-03
1.809784633328672498e+01,2.522676297276958864e-03
1.819817899994086474e+01,2.527954249673097526e-03
1.829792966658715159e+01,2.533185703190129253e-03
1.839754533325321972e+01,2.538394346681322779e-03
1.849760333332233131e+01,2.543610369012651133e-03
1.859738033323083073e+01,2.548796098402371629e-03
1.869751833332702518e+01,2.553984956244803421e-03
1.879771499987691641e+01,2.559161251089977704e-03
1.889738533331546932e+01,2.564294941829977238e-03
1.899747266655322164e+01,2.569434713073540100e-03
1.909762099990621209e+01,2.574562243593604347e-03
1.919755333324428648e+01,2.579663456777266887e-03
1.929771566658746451e+01,2.584761185681962951e-03
1.939769733324646950e+01,2.589834586930872019e-03
1.949762899987399578e+01,2.594890411145728444e-03
1.959735833329614252e+01,2.599921075102664368e-03
1.969748533330857754e+01,2.604956867305114731e-03
1.979747799993492663e+01,2.609971038230895872e-03
1.989742533327080309e+01,2.614968155975968753e-03
1.999764600000344217e+01,2.619964167154072068e-03
2.009744233323726803e+01,2.624924389989427304e-03
2.019749866658821702e+01,2.629882937478655956e-03
2.029778499994426966e+01,2.634838278242554888e-03
2.039750899991486222e+01,2.639751395622018729e-03
2.049737666663713753e+01,2.644657223913523050e-03
2.059756566665600985e+01,2.649564450648636549e-03
2.069730533321853727e+01,2.654435415798258799e-03
2.079737233323976398e+01,2.659308134410916843e-03
2.089770999993197620e+01,2.664179778001034716e-03
2.099760833324398845e+01,2.669015967889967235e-03
2.109730766667053103e+01,2.673828530702882737e-03
2.119772699999157339e+01,2.678661693022852362e-03
2.129727666650433093e+01,2.683438601522555086e-03
2.139755499991588295e+01,2.688236472000431025e-03
2.149751933326479048e+01,2.693005379822188509e-03
2.159737366659101099e+01,2.697755193912377072e-03
2.169727066659834236e+01,2.702493237639780072e-03
2.179763199994340539e+01,2.707239452111667288e-03
2.189752233331091702e+01,2.711949651562959793e-03
2.199758566659875214e+01,2.716654309618426154e-03
2.209742200002074242e+01,2.721334674811141593e-03
2.219744133332278579e+01,2.726010020525208768e-03
2.229758866655174643e+01,2.730677755097480567e-03
2.239746033318806440e+01,2.735319136001476518e-03
2.249728833325207233e+01,2.739945050677709999e-03
2.259754133329261094e+01,2.744577179810929815e-03
2.269768466660752892e+01,2.749190795377575748e-03
2.279753933323081583e+01,2.753777769503664569e-03
2.289745399996172637e+01,2.758354202202445080e-03
2.299754233320709318e+01,2.762925290049980838e-03
2.309742666652891785e+01,2.767473826914176351e-03
2.319752133323345333e+01,2.772018714796346903e-03
2.329745333327446133e+01,2.776543042300616375e-03
2.339751433325000107e+01,2.781060054707081008e-03
2.349720433331094682e+01,2.785547261073915287e-03
2.359732499986421317e+01,2.790040765979999188e-03
2.369757666660007089e+01,2.794527041239160733e-03
2.379760333325248212e+01,2.798990204705503314e-03
2.389730599988251925e+01,2.803425975698701535e-03
2.399773066653870046e+01,2.807880842067721986e-03
2.409793899988289922e+01,2.812313108765897209e-03
2.419776466651819646e+01,2.816715562301121481e-03
2.429777533316519111e+01,2.821113302149154747e-03
2.439759133325424045e+01,2.825490198652765624e-03
2.449766166659537703e+01,2.829868237697456910e-03
2.459738333325367421e+01,2.834218655547196715e-03
2.469785299990326166e+01,2.838589264661366910e-03
2.479763233324047178e+01,2.842917527735605576e-03
2.489740633324254304e+01,2.847233330530279157e-03
2.499735766660887748e+01,2.851544585420633972e-03
2.509746099996846169e+01,2.855850181696114806e-03
2.519771599990781397e+01,2.860150091673417660e-03
2.529765399987809360e+01,2.864424286294281214e-03
2.539727499999571592e+01,2.868672921767003933e-03
2.549766533321235329e+01,2.872942287226704951e-03
2.559730166662484407e+01,2.877167636552032792e-03
2.569754666660446674e+01,2.881406823837639151e-03
2.579744066658895463e+01,2.885619260130738856e-03
2.589736299996729940e+01,2.889821038699762028e-03
2.599722099991049618e+01,2.894008308291322155e-03
2.609745033329818398e+01,2.898199321810126464e-03
2.619760733330622315e+01,2.902375513332580009e-03
2.629740066651720554e+01,2.906524850236986025e-03
2.639758899994194508e+01,2.910678909663425625e-03
2.649773666658438742e+01,2.914819603152312300e-03
2.659735566657036543e+01,2.918926890144499416e-03
2.669741266663186252e+01,2.923040678620778075e-03
2.679740133322775364e+01,2.927140123115338187e-03
2.689779033325612545e+01,2.931244417204932010e-03
2.699764266656711698e+01,2.935315311768270027e-03
2.709739599993918091e+01,2.939370794429713597e-03
2.719768466649111360e+01,2.943436614240142052e-03
2.729759733332321048e+01,2.947475831948093063e-03
2.739737266651354730e+01,2.951498217643742754e-03
2.749740733322687447e+01,2.955519775735510751e-03
2.759758566657546908e+01,2.959535965909962374e-03
2.769733299990184605e+01,2.963524324956667410e-03
2.779770066658966243e+01,2.967526338677966592e-03
2.789741633331868798e+01,2.971491316517125593e-03
2.799757199990563095e+01,2.975462751203231029e-03
2.809737400000449270e+01,2.979409193566959907e-03
2.819768199988175184e+01,2.983364648065700564e-03
2.829761099989991635e+01,2.987294231197721271e-03
2.839764699991792440e+01,2.991217134285973408e-03
2.849741066666319966e+01,2.995118543710387216e-03
2.859726033324841410e+01,2.999012537568512392e-03
2.869745566649362445e+01,3.002909207092003922e-03
2.879731333325617015e+01,3.006782009875055145e-03
2.889731866656802595e+01,3.010649833308822777e-03
2.899766299990005791e+01,3.014520033095558545e-03
2.909748999995645136e+01,3.018359643172179550e-03
2.919733366661239415e+01,3.022189315605622144e-03
2.929732733336277306e+01,3.026014170959041676e-03
2.939748466655146331e+01,3.029834714910164834e-03
2.949737200001254678e+01,3.033634454234146287e-03
2.959782099991571158e+01,3.037445011977673789e-03
2.969740066665690392e+01,3.041212182852200997e-03
2.979730433318763971e+01,3.044981228396353469e-03
2.989762133324984461e+01,3.048755435104163417e-03
2.999736566655337811e+01,3.052497762624824772e-03
3.009759933326859027e+01,3.056248100135105193e-03
3.019790133321657777e+01,3.059990639704643703e-03
3.029754666658118367e+01,3.063698450621351113e-03
3.039762166654691100e+01,3.067412020275077020e-03
3.049761799990665168e+01,3.071112461278747378e-03
3.059775499987881631e+01,3.074807910167435057e-03
3.069766666658688337e+01,3.078484902107201694e-03
3.079762299987487495e+01,3.082153539275762737e-03
3.089755833335220814e+01,3.085811742265493363e-03
3.099743133317679167e+01,3.089457682569461770e-03
3.109734833321999758e+01,3.093095275587503471e-03
3.119771666661836207e+01,3.096739307515926180e-03
3.129768533329479396e+01,3.100358904313468833e-03
3.139744433318264782e+01,3.103961066177285573e-03
3.149755766661837697e+01,3.107566167048675214e-03
3.159746033325791359e+01,3.111153869765451684e-03
3.169741799996700138e+01,3.114733767505910560e-03
3.179772999987471849e+01,3.118316550072336088e-03
3.189720033330377191e+01,3.121859600990707986e-03
3.199765499995555729e+01,3.125427969180672415e-03
3.209792566660325974e+01,3.128980065349484894e-03
3.219770833326037973e+01,3.132505246546732954e-03
3.229781499993987381e+01,3.136032251742786742e-03
3.239778066659346223e+01,3.139544699605618418e-03
3.249726266658399254e+01,3.143030667425846577e-03
3.259731699991971254e+01,3.146527173652293157e-03
3.269752166664693505e+01,3.150019395385245807e-03
3.279744366661179811e+01,3.153492288393905905e-03
3.289759566658176482e+01,3.156963705620518222e-03
3.299767566658556461e+01,3.160423183841012604e-03
3.309745366650167853e+01,3.163862852086449066e-03
3.319736899994313717e+01,3.167297905176439353e-03
3.329756366659421474e+01,3.170733192761970680e-03
3.339739099994767457e+01,3.174146581474605530e-03
3.349773333326447755e+01,3.177568246169575582e-03
3.359728433331474662e+01,3.180953704945262139e-03
3.369770533335395157e+01,3.184359469807364774e-03
3.379751766659319401e+01,3.187735380912663091e-03
3.389756299997679889e+01,3.191109982591484873e-03
3.399747999990358949e+01,3.194471202105949106e-03
3.409731399989686906e+01,3.197820862578562053e-03
3.419761266652494669e+01,3.201177012839949952e-03
3.429758266650605947e+01,3.204513114917506046e-03
3.439742766658309847e+01,3.207836053377982957e-03
3.449759899987839162e+01,3.211160848192985695e-03
3.459758299996610731e+01,3.214470457675305728e-03
3.469743799988646060e+01,3.217766881218420659e-03
3.479738466662820429e+01,3.221057434304699235e-03
3.489756699989084154e+01,3.224346839859366411e-03
3.499755400000140071e+01,3.227620966545393256e-03
3.509746999992057681e+01,3.230883946457414543e-03
3.519734533317387104e+01,3.234136810124206302e-03
3.529777299996931106e+01,3.237398828669515657e-03
3.539747633330989629e+01,3.240628581815075890e-03
3.549758066656067967e+01,3.243862590454115423e-03
3.559734866663347930e+01,3.247077050019476097e-03
3.569758533325511962e+01,3.250297904249740272e-03
3.579753699991852045e+01,3.253500936283708865e-03
3.589754233323037624e+01,3.256697053126283992e-03
3.599718933319672942e+01,3.259873150654637140e-03
3.609764799987897277e+01,3.263066486148445081e-03
3.619775166665203869e+01,3.266239938954394913e-03
3.629771633329801261e+01,3.269400443673717120e-03
3.639733533328399062e+01,3.272541551432831160e-03
3.649768166663125157e+01,3.275697069642918326e-03
3.659731866652145982e+01,3.278821841025133556e-03
3.669769699987955391e+01,3.281961379578780206e-03
3.679734266654122621e+01,3.285069604341279113e-03
3.689752499992027879e+01,3.288186156632061721e-03
3.699774133332539350e+01,3.291295349533119967e-03
3.709755566657986492e+01,3.294383724636247828e-03
3.719764433335512877e+01,3.297472246523323533e-03
3.729780766658950597e+01,3.300554732115476564e-03
3.739771166665013880e+01,3.303620947407202336e-03
3.749770233326125890e+01,3.306681554654462233e-03
3.759742166660726070e+01,3.309725639961207198e-03
3.769761633325833827e+01,3.312775992414032471e-03
3.779759499989449978e+01,3.315811553885292771e-03
3.789763066661544144e+01,3.318840653685923951e-03
3.799776499997824430e+01,3.321864555092213407e-03
3.809771466662641615e+01,3.324874732940007096e-03
3.819756066659465432e+01,3.327873682230597825e-03
3.829740333324298263e+01,3.330864449685971406e-03
3.839741066657006741e+01,3.333852068110854626e-03
3.849758099997416139e+01,3.336836467888849769e-03
3.859728566650301218e+01,3.339798975229009252e-03
3.869777599989902228e+01,3.342776751801364646e-03
3.879768233327195048e+01,3.345729206114185159e-03
3.889766799996141344e+01,3.348676021077818393e-03
3.899752899992745370e+01,3.351611208758028225e-03
3.909745433321222663e+01,3.354540350440503478e-03
3.919726266653742641e+01,3.357458155570254826e-03
3.929764999984763563e+01,3.360384934744845009e-03
3.939746399992145598e+01,3.363287109570173641e-03
3.949735899991355836e+01,3.366183781863690133e-03
3.959743233327753842e+01,3.369077761486779718e-03
3.969798499997705221e+01,3.371977693380086814e-03
3.979785166657529771e+01,3.374850011565292112e-03
