Time [s],Voltage [V]
0.000000000000000000e+00,1.450159938682962215e-04
9.773433324880897999e-02,1.564364180641193789e-04
1.973923332989215851e-01,1.652506169421322875e-04
2.975749998586252332e-01,1.730448701208193822e-04
3.973323332611471415e-01,1.803957078496925669e-04
4.971563331782817841e-01,1.874893297378719828e-04
5.973799998173490167e-01,1.944686119763506128e-04
6.974829999962821603e-01,2.013008120798357370e-04
7.972313332138583064e-01,2.079863051446372707e-04
8.972923331893980503e-01,2.145706322901282147e-04
9.976093332516029477e-01,2.210773500833561550e-04
1.097153333248570561e+00,2.274484439666247431e-04
1.197304666624404490e+00,2.337652439198075653e-04
1.297355666523799300e+00,2.399824076609456030e-04
1.397172666504047811e+00,2.461147843971691479e-04
1.497217333177104592e+00,2.521887716001915960e-04
1.597392999916337430e+00,2.581908532093393814e-04
1.697252999874763191e+00,2.640944875663119593e-04
1.797237999970093369e+00,2.699489755688994248e-04
1.897251999936997890e+00,2.757467690234823715e-04
1.997428333270363510e+00,2.814879533730926808e-04
2.097185666556470096e+00,2.871394653857611270e-04
2.197165666497312486e+00,2.927543552610115769e-04
2.297394666587933898e+00,2.983326097618585210e-04
2.397495999932289124e+00,3.038477191542234696e-04
2.497370999888516963e+00,3.092945443566394058e-04
2.597538999980315566e+00,3.147091690186938281e-04
2.697513999883085489e+00,3.200673665552713218e-04
2.797518666600808501e+00,3.253805215927179154e-04
2.897577999974600971e+00,3.306515264999956762e-04
2.997556333197280765e+00,3.358748739385904441e-04
3.097258666530251503e+00,3.410422210013293841e-04
3.197255333187058568e+00,3.461847325215411776e-04
3.297217333340086043e+00,3.512869515429725871e-04
3.397431333200074732e+00,3.563643862869172400e-04
3.497601333307102323e+00,3.614035954725072905e-04
3.597647666581906378e+00,3.664024609929194490e-04
3.697653333307243884e+00,3.713667885508100796e-04
3.797226333175785840e+00,3.762789103772773251e-04
3.897319333278574049e+00,3.811873528085507742e-04
3.997359999921172857e+00,3.860654165582237847e-04
4.097277999971993268e+00,3.909113165687610851e-04
4.197548666503280401e+00,3.957419096332385425e-04
4.297389666549861431e+00,4.005219326921865414e-04
4.397256333264522254e+00,4.052773237967329184e-04
4.497527999919839203e+00,4.100270966301615373e-04
4.597351666656322777e+00,4.147319744473840003e-04
4.697529666591435671e+00,4.194309236795286302e-04
4.797318999888375401e+00,4.240902161087333529e-04
4.897488333284854889e+00,4.287468613440241320e-04
4.997547333245165646e+00,4.333715208862296518e-04
5.097331333206966519e+00,4.379585548084759727e-04
5.197402999969199300e+00,4.425373720635702827e-04
5.297517333179712296e+00,4.470973156825680094e-04
5.397242999868467450e+00,4.516195029388006326e-04
5.497278333175927401e+00,4.561362816923467470e-04
5.597583999857306480e+00,4.606463679016914187e-04
5.697323666536249220e+00,4.651128972510403404e-04
5.797310666530393064e+00,4.695684799095228889e-04
5.897511999937705696e+00,4.740124947925423342e-04
5.997361999936401844e+00,4.784220776415395136e-04
6.097213999833911657e+00,4.828133095660336284e-04
6.197335333214141428e+00,4.871982517239692445e-04
6.297630999935790896e+00,4.915730046195721176e-04
6.397178666666150093e+00,4.958978674925801832e-04
6.497308333287946880e+00,5.002310449986514676e-04
6.597562999930232763e+00,5.045517715471046355e-04
6.697578666615299881e+00,5.088448386546567297e-04
6.797417333233170211e+00,5.131138019119761045e-04
6.897457666578702629e+00,5.173751526710844732e-04
6.997499333228915930e+00,5.216206145744468718e-04
7.097531999927014112e+00,5.258500576467794009e-04
7.197333333315327764e+00,5.300544431877869970e-04
7.297588666551746428e+00,5.342628987534809009e-04
7.397222666535526514e+00,5.384306270968435351e-04
7.497221999918110669e+00,5.425992630112474926e-04
7.597410999936982989e+00,5.467616707816887580e-04
7.697537666535936296e+00,5.509076615435135483e-04
7.797567333327606320e+00,5.550361398970970160e-04
7.897316666552796960e+00,5.591399206437996407e-04
7.997216333285905421e+00,5.632370526938530395e-04
8.097373333177529275e+00,5.673321524657065455e-04
8.197732999920845032e+00,5.714212118999383678e-04
8.297303333296440542e+00,5.754646853575106843e-04
8.397211333271116018e+00,5.795096124589108142e-04
8.497405333328060806e+00,5.835540492693323377e-04
8.597599666565656662e+00,5.875866765277337582e-04
8.697582333232276142e+00,5.915992620146909211e-04
8.797228333307430148e+00,5.955871446764332295e-04
8.897337333299219608e+00,5.995825684638098584e-04
8.997417333303019404e+00,6.035660885750008912e-04
9.097393333213403821e+00,6.075350037892960015e-04
9.197447999962605536e+00,6.114968324686625815e-04
9.297459999914281070e+00,6.154470273223304651e-04
9.397620333242230117e+00,6.193933798710022590e-04
9.497227333253249526e+00,6.233085638841158764e-04
9.597305666538886726e+00,6.272331289275093376e-04
9.697187666548416018e+00,6.311411165300873311e-04
9.797604333260096610e+00,6.350557647968313717e-04
9.897311666514724493e+00,6.389300656758309946e-04
9.997313666506670415e+00,6.428060517919773889e-04
1.009734033327549696e+01,6.466733788805096011e-04
1.019753466651309282e+01,6.505377161835272735e-04
1.029745600000023842e+01,6.543822504365550763e-04
1.039755433320533484e+01,6.582244768748412699e-04
1.049722099991049618e+01,6.620412335290923713e-04
1.059730066661722958e+01,6.658650369863380056e-04
1.069733299990184605e+01,6.696784185151967222e-04
1.079743866657372564e+01,6.734861427336960062e-04
1.089776699990034103e+01,6.772940210556551007e-04
1.099783066660165787e+01,6.810837306490756093e-04
1.109758466656785458e+01,6.848538041424865642e-04
1.119741366663947701e+01,6.886189741514823527e-04
1.129766266664955765e+01,6.923923630680055719e-04
1.139727766660507768e+01,6.961303086953243933e-04
1.149764066655188799e+01,6.998856026082971634e-04
1.159748766664415598e+01,7.036132079261665871e-04
1.169762066658586264e+01,7.073431896086894606e-04
1.179738799994811416e+01,7.110513770340261578e-04
1.189722399995662272e+01,7.147540442882363348e-04
1.199752499989699572e+01,7.184659204449669358e-04
1.209740099986083806e+01,7.221541586936303103e-04
1.219734599988441914e+01,7.258371383039388409e-04
1.229763933329377323e+01,7.295251987730461650e-04
1.239746833324898034e+01,7.331885640538250920e-04
1.249759166652802378e+01,7.368551887081891761e-04
1.259728699992410839e+01,7.404987292960905562e-04
1.269737766659818590e+01,7.441493741490996620e-04
1.279748299997299910e+01,7.477932886515117243e-04
1.289732599991839379e+01,7.514205111336724275e-04
1.299727266666013747e+01,7.550423797918273672e-04
1.309725233318749815e+01,7.586567099371739576e-04
1.319738333323039114e+01,7.622689734446857265e-04
1.329757266654632986e+01,7.658758495218198148e-04
1.339738333330024034e+01,7.694616993687990224e-04
1.349771933327428997e+01,7.730590421879413856e-04
1.359731500002089888e+01,7.766225811220133900e-04
1.369729733327403665e+01,7.801927364693752578e-04
1.379726166662294418e+01,7.837550760365623748e-04
1.389738633332308382e+01,7.873159973618825552e-04
1.399760666664224118e+01,7.908732311507412228e-04
1.409732266655191779e+01,7.944055817036912732e-04
1.419727766653522849e+01,7.979394663256486738e-04
1.429717099992558360e+01,8.014642940313281439e-04
1.439734266663435847e+01,8.049920974105136086e-04
1.449721966648939997e+01,8.085027560425867227e-04
1.459729099983815104e+01,8.120129613468714432e-04
1.469727266661357135e+01,8.155128237588654900e-04
1.479757499997504056e+01,8.190170469019856679e-04
1.489761733321938664e+01,8.225053736708920395e-04
1.499750933330506086e+01,8.259817045254402032e-04
1.509763966663740575e+01,8.294595903636568877e-04
1.519729933317285031e+01,8.329144613045075338e-04
1.529760566656477749e+01,8.363850661691591640e-04
1.539745566656347364e+01,8.398332533237114076e-04
1.549733933317475021e+01,8.432760167056378578e-04
1.559764666657429188e+01,8.467267831592116458e-04
1.569727166660595685e+01,8.501475582470770275e-04
1.579744566662702709e+01,8.535806626958112545e-04
1.589718866662587970e+01,8.569925259446294248e-04
1.599761433328967541e+01,8.604212445348551411e-04
1.609752666659187526e+01,8.638259937812980613e-04
1.619730933324899524e+01,8.672200830480036220e-04
1.629734199994709343e+01,8.706164370699817157e-04
1.639720366662368178e+01,8.740006928166587459e-04
1.649749233329202980e+01,8.773931199939516987e-04
1.659739599993918091e+01,8.807662747381955759e-04
1.669731366657651961e+01,8.841336903568025943e-04
1.679722766659688205e+01,8.874947964894245016e-04
1.689746533322613686e+01,8.908606004088650328e-04
1.699722033319994807e+01,8.942040663420596728e-04
1.709764433326199651e+01,8.975638016119954089e-04
1.719749999989289790e+01,9.008984249536385958e-04
1.729724866664037108e+01,9.042234269933372868e-04
1.739755333319772035e+01,9.075608895453140005e-04
1.749746099999174476e+01,9.108791105141200630e-04
1.759759599994868040e+01,9.141988623320804891e-04
1.769753133319318295e+01,9.175060067683151908e-04
1.779751566657796502e+01,9.208090708454484035e-04
1.789755499991588295e+01,9.241082700218781034e-04
1.799749766662716866e+01,9.273984666888018206e-04
1.809729900001548231e+01,9.306782398366566069e-04
1.819718066649511456e+01,9.339549078774783512e-04
1.829728666658047587e+01,9.372331969222326333e-04
1.839757233322598040e+01,9.405116377941668670e-04
1.849750266654882580e+01,9.437727838802309650e-04
1.859741533326450735e+01,9.470277141871364301e-04
1.869760166655760258e+01,9.502859256507837108e-04
1.879761499993037432e+01,9.535329109246844150e-04
1.889726533333305269e+01,9.567625735228110556e-04
1.899759799987077713e+01,9.600087930292241448e-04
1.909756366664078087e+01,9.632376193237215728e-04
1.919718966668006033e+01,9.664500200588973513e-04
1.929723466653376818e+01,9.696704778984697711e-04
1.939727166655939072e+01,9.728852401932343817e-04
1.949724599986802787e+01,9.760925818794731175e-04
1.959741166653111577e+01,9.793006670617302942e-04
1.969730133318807930e+01,9.824945604263919142e-04
1.979760166653431952e+01,9.856962322161919032e-04
1.989728366665076464e+01,9.888728775004672691e-04
1.999727366655133665e+01,9.920540660274309447e-04
2.009717766661196947e+01,9.952272697420355696e-04
2.019748933322262019e+01,9.984081679737439631e-04
2.029737966659013182e+01,1.001570498383467980e-03
2.039768099982757121e+01,1.004740636021894066e-03
2.049746833322569728e+01,1.007889377067915614e-03
2.059732099995017052e+01,1.011035060409870654e-03
2.069741299992892891e+01,1.014183167622680591e-03
2.079724699992220849e+01,1.017318081142934297e-03
2.089759899990167469e+01,1.020464171663479878e-03
2.099765399983152747e+01,1.023595646877027395e-03
2.109753766655921936e+01,1.026716504247066411e-03
2.119759466662071645e+01,1.029837714009842597e-03
2.129747999995015562e+01,1.032948532238194819e-03
2.139762800000607967e+01,1.036062496883293112e-03
2.149739399994723499e+01,1.039159589502132008e-03
2.159741866658441722e+01,1.042259725273474982e-03
2.169734466657973826e+01,1.045351834150796098e-03
2.179724666662514210e+01,1.048438252458034139e-03
2.189728699985425919e+01,1.051524003307830000e-03
2.199746899993624538e+01,1.054609184933867887e-03
2.209750966657884419e+01,1.057685097940062793e-03
2.219724399992264807e+01,1.060746717526156544e-03
2.229744033329188824e+01,1.063817633577495043e-03
2.239737266662996262e+01,1.066875595313458583e-03
2.249732966651208699e+01,1.069929468042327397e-03
2.259736899985000491e+01,1.072981020072058794e-03
2.269722133327741176e+01,1.076022057282513631e-03
2.279731099994387478e+01,1.079065512889845323e-03
2.289758666662964970e+01,1.082109808841889452e-03
2.299745133321266621e+01,1.085136849859465570e-03
2.309737299999687821e+01,1.088160859776889566e-03
2.319730433321092278e+01,1.091180413699095568e-03
2.329768566659186035e+01,1.094208796225963794e-03
2.339751033333595842e+01,1.097215656814361489e-03
2.349731599993538111e+01,1.100217243025076314e-03
2.359729766659438610e+01,1.103219419384005289e-03
2.369724533322732896e+01,1.106215880972275401e-03
2.379728266655001789e+01,1.109210341976628669e-03
2.389715499989688396e+01,1.112195194852038434e-03
2.399738333327695727e+01,1.115186007109228786e-03
2.409763766662217677e+01,1.118172914446292953e-03
2.419752233324106783e+01,1.121144783627636872e-03
2.429783399996813387e+01,1.124125353421169407e-03
2.439761033328250051e+01,1.127085539880772359e-03
2.449726233328692615e+01,1.130037596866472448e-03
2.459738299995660782e+01,1.132999083985810045e-03
2.469744966668076813e+01,1.135954529226307743e-03
2.479722999990917742e+01,1.138897108835320356e-03
2.489748833328485489e+01,1.141849366199527201e-03
2.499721699988003820e+01,1.144781647681315795e-03
2.509727133333217353e+01,1.147719130869184583e-03
2.519754766661208123e+01,1.150658751311009215e-03
2.529757866659201682e+01,1.153586825457315196e-03
2.539746099989861250e+01,1.156506223284938135e-03
2.549732899991795421e+01,1.159420896226155771e-03
2.559744466666597873e+01,1.162338490131021446e-03
2.569739199988543987e+01,1.165246890961785242e-03
2.579755799996200949e+01,1.168157371092720317e-03
2.589731833327095956e+01,1.171051815446268445e-03
2.599729333317372948e+01,1.173948248368495220e-03
2.609758766659069806e+01,1.176849681953805269e-03
2.619735399982891977e+01,1.179731630293513181e-03
2.629746033332776278e+01,1.182619192617543214e-03
2.639737133320886642e+01,1.185496931360001350e-03
2.649735766660887748e+01,1.188372663201019749e-03
2.659726466657593846e+01,1.191241952914979998e-03
2.669733666663523763e+01,1.194111825139680411e-03
2.679728666658047587e+01,1.196974059253382754e-03
2.689734999998472631e+01,1.199835407508017138e-03
2.699737633322365582e+01,1.202691578730075888e-03
2.709722866653464735e+01,1.205538686244264895e-03
2.719740866660140455e+01,1.208391036829280576e-03
2.729736666660755873e+01,1.211232985705890195e-03
2.739739966660272330e+01,1.214073105172494820e-03
2.749752233317121863e+01,1.216911829621769060e-03
2.759730666654650122e+01,1.219736952743045392e-03
2.769746466656215489e+01,1.222568643409477438e-03
2.779756799992173910e+01,1.225394785056137378e-03
2.789716033323202282e+01,1.228202540566234423e-03
2.799748866655863822e+01,1.231027064850078422e-03
2.809742999984882772e+01,1.233836733698439117e-03
2.819765499990899116e+01,1.236650419932952723e-03
2.829760199994780123e+01,1.239452367087508656e-03
2.839724266657140106e+01,1.242241827039156175e-03
2.849748866667505354e+01,1.245044316204394971e-03
2.859739666664972901e+01,1.247833458525820236e-03
2.869754366658162326e+01,1.250625379450910797e-03
2.879754433326888829e+01,1.253409342508635853e-03
2.889715333329513669e+01,1.256178560137944863e-03
2.899729266657959670e+01,1.258958667798173656e-03
2.909765933325979859e+01,1.261741220724135401e-03
2.919757033325731754e+01,1.264507307558252521e-03
2.929746166663244367e+01,1.267269037234673799e-03
2.939758466661442071e+01,1.270033356928345226e-03
2.949721999990288168e+01,1.272780431441523832e-03
2.959754300001077354e+01,1.275542665243332811e-03
2.969739066658075899e+01,1.278288035157892043e-03
2.979724733321927488e+01,1.281029894766842802e-03
2.989735833322629333e+01,1.283774975566650579e-03
2.999752799991983920e+01,1.286517904585450858e-03
3.009731066657695919e+01,1.289246506434359261e-03
3.019728833332192153e+01,1.291976716581596596e-03
3.029721266659907997e+01,1.294701755090491100e-03
3.039718399988487363e+01,1.297424367924341314e-03
3.049760899995453656e+01,1.300155611699424507e-03
3.059759666665922850e+01,1.302871382187084865e-03
3.069738299993332475e+01,1.305578163166834157e-03
3.079733233328443021e+01,1.308285728264659258e-03
3.089720366650726646e+01,1.310987554563885268e-03
3.099766699993051589e+01,1.313701749877457022e-03
3.109726233326364309e+01,1.316388894788125905e-03
3.119738133333157748e+01,1.319086566058441136e-03
3.129733133327681571e+01,1.321776090808450804e-03
3.139751766656991094e+01,1.324468382293569283e-03
3.149730266653932631e+01,1.327146323207375328e-03
3.159760366659611464e+01,1.329834535693938651e-03
3.169765299989376217e+01,1.332512440642657668e-03
3.179737933329306543e+01,1.335178168873867380e-03
3.189770466659683734e+01,1.337856360606929414e-03
3.199739199993200600e+01,1.340514005393798587e-03
3.209736366663128138e+01,1.343175720377893460e-03
3.219768566661514342e+01,1.345843238489075055e-03
3.229728866659570485e+01,1.348488155023811613e-03
3.239739999989978969e+01,1.351143081329219363e-03
3.249747866659890860e+01,1.353793654226926376e-03
3.259724066662602127e+01,1.356432378996379282e-03
3.269740299996919930e+01,1.359078224776121870e-03
3.279750599991530180e+01,1.361719040111699936e-03
3.289765033335424960e+01,1.364357490176945761e-03
3.299780566652771086e+01,1.366992781536561846e-03
3.309756099991500378e+01,1.369614128330132663e-03
3.319770233333110809e+01,1.372242193847426255e-03
3.329737099981866777e+01,1.374854456157340423e-03
3.339756266667973250e+01,1.377477016665207190e-03
3.349747433315496892e+01,1.380088852041523942e-03
3.359720666659995914e+01,1.382692625118523604e-03
3.369734299997799098e+01,1.385303561710791867e-03
3.379725699988193810e+01,1.387905433356224861e-03
3.389753133326303214e+01,1.390513454953538073e-03
3.399749166658148170e+01,1.393109976014139748e-03
3.409755566657986492e+01,1.395705864983709348e-03
3.419742133317049593e+01,1.398293300726364922e-03
3.429753433330915868e+01,1.400883836350603042e-03
3.439733633317518979e+01,1.403463036087093793e-03
3.449722699995618314e+01,1.406041248112015977e-03
3.459763899992685765e+01,1.408629618136010260e-03
3.469748099986463785e+01,1.411200025144279495e-03
3.479760233324486762e+01,1.413774357675598144e-03
3.489744199998676777e+01,1.416338199620754881e-03
3.499725733324885368e+01,1.418898182321335364e-03
3.509720599988941103e+01,1.421458352342956687e-03
3.519728899991605431e+01,1.424018730427704417e-03
3.529726133320946246e+01,1.426573055756249001e-03
3.539724833320360631e+01,1.429124543268173652e-03
3.549758033326361328e+01,1.431681613095870916e-03
3.559748866653535515e+01,1.434224686591786683e-03
3.569756766664795578e+01,1.436768911932115051e-03
3.579733999993186444e+01,1.439302168474643684e-03
3.589749699993990362e+01,1.441842013400924938e-03
3.599720366660039872e+01,1.444367282952540524e-03
3.609732433315366507e+01,1.446899877371011101e-03
3.619763433327898383e+01,1.449434092557641551e-03
3.629761133319698274e+01,1.451956746610492521e-03
3.639745099993888289e+01,1.454472806214370927e-03
3.649741799989715219e+01,1.456988948989603686e-03
3.659743933321442455e+01,1.459503336266670991e-03
3.669750666664913297e+01,1.462015761051331649e-03
3.679742333327885717e+01,1.464521297564397697e-03
3.689726033329498023e+01,1.467021743991216718e-03
3.699721833318471909e+01,1.469522131139264611e-03
3.709765466663520783e+01,1.472031376631969700e-03
3.719760099996346980e+01,1.474525295587991551e-03
3.729733033326920122e+01,1.477010739525917672e-03
3.739730866660829633e+01,1.479499327303307942e-03
3.749748866655863822e+01,1.481989866705419418e-03
3.759763733320869505e+01,1.484476564026587135e-03
3.769717166665941477e+01,1.486944979420385315e-03
3.779731199995148927e+01,1.489425383576111362e-03
3.789731399994343519e+01,1.491899325022594865e-03
3.799741333327256143e+01,1.494372642152597044e-03
3.809742566663771868e+01,1.496840786190642902e-03
3.819732333323918283e+01,1.499303089743243009e-03
3.829751799989026040e+01,1.501769697633965808e-03
3.839736699999775738e+01,1.504224796906872275e-03
3.849719033320434391e+01,1.506676278507944767e-03
3.859743133326992393e+01,1.509135018314704561e-03
3.869727033318486065e+01,1.511580916525936524e-03
3.879747333319392055e+01,1.514032746536922566e-03
3.889728533325251192e+01,1.516472041536110968e-03
3.899751099990680814e+01,1.518918471441666048e-03
3.909741399995982647e+01,1.521354064572129046e-03
3.919727766665164381e+01,1.523785750165316307e-03
3.929723999986890703e+01,1.526216891447868592e-03
3.939769299991894513e+01,1.528657001527341727e-03
3.949735066655557603e+01,1.531074860977624588e-03
3.959771133319009095e+01,1.533506831321613997e-03
3.969758699985686690e+01,1.535924120301069597e-03
3.979729599982965738e+01,1.538334466379199725e-03
