Time [s],Voltage [V]
0.000000000000000000e+00,1.578605208384546233e-04
9.798366681206971407e-02,1.871230235161660963e-04
1.980576668865978718e-01,2.081689514530070959e-04
2.980990000069141388e-01,2.277038128641446996e-04
3.981206667376682162e-01,2.466405506593581827e-04
4.977636667899787426e-01,2.650501551565788471e-04
5.978620001114904881e-01,2.831980178884615671e-04
6.979860002174973488e-01,3.010149639175875146e-04
7.980706667294725776e-01,3.184404339470807638e-04
8.977419999428093433e-01,3.354308916245675324e-04
9.978133334079757333e-01,3.521585695321114524e-04
1.097926000133156776e+00,3.685494863837951354e-04
1.198042000178247690e+00,3.845971906326065741e-04
1.298145000007934868e+00,4.003037967479556626e-04
1.397822999977506697e+00,4.156905050408376276e-04
1.497895666863769293e+00,4.308316302055700299e-04
1.598054666654206812e+00,4.456783089808821373e-04
1.698272000183351338e+00,4.602298715532441133e-04
1.797914666822180152e+00,4.744901353074419464e-04
1.897962333401665092e+00,4.885418807241251370e-04
1.998004666762426496e+00,5.023258784687858591e-04
2.098054000060074031e+00,5.158463018898369482e-04
2.198060000082477927e+00,5.291791660158392694e-04
2.298241666867397726e+00,5.423025117561233038e-04
2.397938666865229607e+00,5.551309146858866362e-04
2.497867000056430697e+00,5.677580615868646442e-04
2.598058000090532005e+00,5.802318889181985523e-04
2.698132000165060163e+00,5.924893876905967197e-04
2.797954000183381140e+00,6.045212720440926646e-04
2.898345333407633007e+00,6.164317937107128978e-04
2.998247333453036845e+00,6.281012770459376733e-04
3.098429666715674102e+00,6.396263712244923535e-04
3.197844666894525290e+00,6.508939290659597346e-04
3.297832000185735524e+00,6.620624042804293830e-04
3.397888000006787479e+00,6.730768479038731896e-04
3.498042000108398497e+00,6.839482049748921806e-04
3.597982333390973508e+00,6.946489124081935617e-04
3.698088666773401201e+00,7.052257188686441615e-04
3.798140000086277723e+00,7.156610285943076173e-04
3.897745000198483467e+00,7.259209854622207395e-04
3.997877000132575631e+00,7.361116683082492493e-04
4.097904333495534956e+00,7.461739905301465522e-04
4.197744666715152562e+00,7.560724900610728792e-04
4.297909666667692363e+00,7.658840989395281074e-04
4.397884333389811218e+00,7.755637107456311331e-04
4.498142333352006972e+00,7.851616644304542725e-04
4.598133333376608789e+00,7.946298704259891366e-04
4.697937000077217817e+00,8.039811818785984983e-04
4.798127333400771022e+00,8.132737050692733557e-04
4.898145999992266297e+00,8.224599684149464266e-04
4.997800666722469032e+00,8.314882622649994500e-04
5.097812000196427107e+00,8.404511910011229926e-04
5.197936000069603324e+00,8.493311927843220791e-04
5.297729666810482740e+00,8.580922357469577318e-04
5.397865000064484775e+00,8.667962667307507404e-04
5.497936000116169453e+00,8.754106014655730619e-04
5.597849666839465499e+00,8.839304747029554403e-04
5.698027333361096680e+00,8.923946558136027721e-04
5.797908333363011479e+00,9.007345181526818251e-04
5.897941333474591374e+00,9.090036876595235325e-04
5.998087000101804733e+00,9.172024025852011696e-04
6.098139666719362140e+00,9.253157187928447028e-04
6.197814333369024098e+00,9.333229768260090705e-04
6.297818999970331788e+00,9.412830153760320517e-04
6.397947333403863013e+00,9.491808237832929799e-04
6.498075333307497203e+00,9.570084071274537890e-04
6.598199000116437674e+00,9.647581642081073114e-04
6.697766333352774382e+00,9.723944479932839771e-04
6.798101666849106550e+00,9.800210783639708850e-04
6.898142666788771749e+00,9.875583244664891923e-04
6.997777333366684616e+00,9.949999439935069447e-04
7.097891000215895474e+00,1.002413490334791608e-03
7.197945666848681867e+00,1.009760224002808661e-03
7.298083666828460991e+00,1.017052079505902790e-03
7.398116333410143852e+00,1.024272488163422996e-03
7.497785666841082275e+00,1.031406731066092982e-03
7.597867333446629345e+00,1.038512168156508148e-03
7.698020000127144158e+00,1.045565445698694784e-03
7.798079000203870237e+00,1.052556289288876339e-03
7.898145999992266297e+00,1.059493176127031039e-03
7.997784000122919679e+00,1.066347447735704456e-03
8.097832333412952721e+00,1.073178155131528002e-03
8.197975666727870703e+00,1.079964678281595701e-03
8.298090000054799020e+00,1.086699867795920191e-03
8.398191666696220636e+00,1.093386157059492592e-03
8.497873666696250439e+00,1.099997964836795005e-03
8.597948333364911377e+00,1.106590489505183310e-03
8.698011000058613718e+00,1.113138114813811298e-03
8.798170000198297203e+00,1.119649178061728895e-03
8.897863666876219213e+00,1.126088697531749073e-03
8.998044333420693874e+00,1.132503348058114864e-03
9.098041333490982652e+00,1.138859800723103803e-03
9.198089000186882913e+00,1.145177556087660338e-03
9.297734333318658173e+00,1.151429236784777153e-03
9.397975333384238183e+00,1.157678353713453802e-03
9.498033333336934447e+00,1.163877133159131735e-03
9.598090999992564321e+00,1.170038014904937942e-03
9.697751000174321234e+00,1.176137767795712701e-03
9.797782000154256821e+00,1.182224465043612074e-03
9.897906000027433038e+00,1.188281957129017335e-03
9.997990000061690807e+00,1.194303186510016056e-03
1.009800700005143881e+01,1.200287598404104449e-03
1.019786933332215995e+01,1.206231068062388074e-03
1.029790333332493901e+01,1.212154023079978476e-03
1.039793333329726011e+01,1.218046999320189071e-03
1.049801366671454161e+01,1.223914192772259085e-03
1.059797266661189497e+01,1.229723738414974406e-03
1.069811700005084276e+01,1.235504941659694563e-03
1.079813033342361450e+01,1.241247018387245295e-03
1.089777866681106389e+01,1.246937448734169659e-03
1.099786833336111158e+01,1.252622926639602834e-03
1.109794100001454353e+01,1.258277910082284410e-03
1.119780666683800519e+01,1.263892444737899252e-03
1.129799433331936598e+01,1.269496907805208559e-03
1.139802866673562676e+01,1.275065323714436039e-03
1.149809733335860074e+01,1.280608873745156659e-03
1.159815433342009783e+01,1.286125686046383923e-03
1.169782900006975979e+01,1.291596157922543205e-03
1.179772966681048274e+01,1.297054417505815252e-03
1.189772933337371796e+01,1.302494088711797851e-03
1.199773600010666996e+01,1.307910813068253585e-03
1.209795100009068847e+01,1.313316107179694726e-03
1.219808433344587684e+01,1.318678108663698043e-03
1.229818100004922599e+01,1.324005822790695446e-03
1.239779066678602248e+01,1.329282500375346182e-03
1.249812433356419206e+01,1.334572625506074035e-03
1.259772933332715183e+01,1.339800026714381507e-03
1.269772966683376580e+01,1.345024235700753839e-03
1.279794299998320639e+01,1.350235930890760286e-03
1.289793900004588068e+01,1.355413156212666257e-03
1.299806333356536925e+01,1.360574262060419183e-03
1.309814133343752474e+01,1.365710639505636178e-03
1.319777366670314223e+01,1.370802376943545779e-03
1.329805633332580328e+01,1.375905841148902234e-03
1.339811866672243923e+01,1.380977007343807666e-03
1.349813133338466287e+01,1.386025032491155747e-03
1.359775133349467069e+01,1.391033159462629369e-03
1.369791000010445714e+01,1.396048585796903167e-03
1.379787566675804555e+01,1.401026493109314760e-03
1.389784433331806213e+01,1.405978958271693769e-03
1.399803066661115736e+01,1.410921085330389983e-03
1.409809566684998572e+01,1.415836398881903596e-03
1.419815366680268198e+01,1.420730832732769282e-03
1.429772966681048274e+01,1.425581577127407696e-03
1.439793233328964561e+01,1.430442872817108604e-03
1.449791566678322852e+01,1.435273831560478610e-03
1.459797200001776218e+01,1.440088898822448286e-03
1.469805100013036281e+01,1.444885902034086234e-03
1.479772933339700103e+01,1.449644933844947484e-03
1.489806366665288806e+01,1.454416649422485015e-03
1.499817066686227918e+01,1.459159197593865335e-03
1.509778066677972674e+01,1.463860277292307593e-03
1.519783833331894130e+01,1.468564761720270303e-03
1.529781600006390363e+01,1.473248020094919137e-03
1.539789266674779356e+01,1.477915958023425349e-03
1.549783666688017547e+01,1.482558051780180327e-03
1.559806066669989377e+01,1.487195300352544668e-03
1.569808900018688291e+01,1.491805839883237087e-03
1.579783599998336285e+01,1.496386009911823906e-03
1.589787733333650976e+01,1.500962398651635140e-03
1.599796666682232171e+01,1.505523803116490342e-03
1.609772933332715183e+01,1.510053369621781449e-03
1.619778266677167267e+01,1.514579282098333680e-03
1.629807166673708707e+01,1.519099061734809856e-03
1.639778866665437818e+01,1.523576530333007120e-03
1.649788999999873340e+01,1.528054808847565792e-03
1.659799733350519091e+01,1.532517004531012451e-03
1.669800500012934208e+01,1.536958555215710591e-03
1.679812500008847564e+01,1.541388994036541537e-03
1.689798666664864868e+01,1.545792069845481004e-03
1.699807500012684613e+01,1.550189657475451463e-03
1.709806966676842421e+01,1.554567827303058279e-03
1.719787533336784691e+01,1.558922307624236109e-03
1.729796233330853283e+01,1.563273713281207759e-03
1.739796166669111699e+01,1.567606069212470858e-03
1.749821700016036630e+01,1.571934335045243377e-03
1.759798866685014218e+01,1.576226734046540581e-03
1.769804800022393465e+01,1.580516596326814877e-03
1.779805833334103227e+01,1.584789532397003729e-03
1.789814033347647637e+01,1.589050787181303919e-03
1.799772933346685022e+01,1.593276501540198502e-03
1.809786500001791865e+01,1.597510865428663530e-03
1.819796433346346021e+01,1.601729198353959863e-03
1.829801566677633673e+01,1.605931107104655985e-03
1.839811800012830645e+01,1.610120825372921309e-03
1.849810466670896858e+01,1.614291464158441186e-03
1.859791766665875912e+01,1.618441847857613955e-03
1.869797533343080431e+01,1.622589884840533112e-03
1.879784933349583298e+01,1.626716866650904526e-03
1.889794799999799579e+01,1.630839771492348118e-03
1.899798566661775112e+01,1.634946912374874838e-03
1.909809700015466660e+01,1.639043926270150175e-03
1.919811866676900536e+01,1.643124240959408389e-03
1.929772933339700103e+01,1.647174952219603462e-03
1.939790400012861937e+01,1.651235785125429543e-03
1.949797733349259943e+01,1.655279784436694806e-03
1.959810333349741995e+01,1.659313285911889367e-03
1.969813733350019902e+01,1.663330570832793551e-03
1.979778233333490789e+01,1.667319901390326969e-03
1.989788066677283496e+01,1.671315087200311248e-03
1.999816533352714032e+01,1.675305451043664854e-03
2.009781466680578887e+01,1.679258475837368952e-03
2.019794700003694743e+01,1.683218646892484672e-03
2.029805133340414613e+01,1.687165765265706292e-03
2.039806000003591180e+01,1.691097276184924669e-03
2.049815200001467019e+01,1.695020308419051356e-03
2.059775766683742404e+01,1.698912692742643319e-03
2.069785666663665324e+01,1.702812797799603886e-03
2.079805766663048416e+01,1.706705358492401547e-03
2.089807433332316577e+01,1.710579349529496541e-03
2.099772966676391661e+01,1.714428090055343003e-03
2.109772966662421823e+01,1.718278929452643922e-03
2.119775200018193573e+01,1.722119472615414289e-03
2.129778933350462466e+01,1.725949509518020066e-03
2.139799866662360728e+01,1.729775096577187456e-03
2.149774100014474243e+01,1.733571962624256939e-03
2.159780633344780654e+01,1.737370277252988380e-03
2.169786299997940660e+01,1.741157471695135980e-03
2.179796033329330385e+01,1.744935061027531528e-03
2.189772966678719968e+01,1.748688873141977969e-03
2.199777766678016633e+01,1.752442444023626349e-03
2.209787300007883459e+01,1.756187098205254891e-03
2.219789266679435968e+01,1.759918293026508512e-03
2.229791266680695117e+01,1.763638928204016784e-03
2.239773900003638119e+01,1.767341868408733776e-03
2.249781166668981314e+01,1.771043475659227207e-03
2.259782233345322311e+01,1.774732363327282975e-03
2.269785400014370680e+01,1.778411644865661011e-03
2.279773500014562160e+01,1.782075070082915101e-03
2.289772966678719968e+01,1.785732381936005987e-03
2.299773599999025464e+01,1.789379870748911572e-03
2.309792900015600026e+01,1.793023927457005435e-03
2.319798700010869652e+01,1.796652881934749334e-03
2.329807766678277403e+01,1.800272866051747574e-03
2.339812000014353544e+01,1.803880986081426042e-03
2.349816900002770126e+01,1.807479263635071096e-03
2.359795666683930904e+01,1.811058128312441774e-03
2.369776633346918970e+01,1.814627805802888905e-03
2.379783066664822400e+01,1.818196602251278150e-03
2.389818300015758723e+01,1.821765649953142451e-03
2.399818900017999113e+01,1.825312420443305113e-03
2.409773600019980222e+01,1.828833059019559833e-03
2.419789133348967880e+01,1.832365310845743972e-03
2.429796433355659246e+01,1.835884757334820374e-03
2.439801500015892088e+01,1.839393540124284855e-03
2.449814000003971159e+01,1.842895055874469758e-03
2.459797033353243023e+01,1.846376445144906880e-03
2.469812733342405409e+01,1.849859381735982373e-03
2.479807566676754504e+01,1.853325241158072963e-03
2.489812266663648188e+01,1.856784704115343066e-03
2.499783433345146477e+01,1.860224727004821527e-03
2.509772966674063355e+01,1.863667070775870249e-03
2.519798533350694925e+01,1.867112890849445192e-03
2.529806000005919486e+01,1.870543604722412455e-03
2.539784300012979656e+01,1.873955527769946301e-03
2.549794166686479002e+01,1.877369469345321548e-03
2.559810099995229393e+01,1.880776728071861716e-03
2.569802266673650593e+01,1.884167222618763227e-03
2.579805866663809866e+01,1.887552956505700189e-03
2.589818833349272609e+01,1.890933246254704369e-03
2.599793000007048249e+01,1.894291911102528045e-03
2.609772966674063355e+01,1.897644052966745119e-03
2.619773700006771833e+01,1.900994705653982330e-03
2.629795566666871309e+01,1.904343978845525649e-03
2.639800500008277595e+01,1.907679184819397866e-03
2.649815533333458006e+01,1.911009382565579447e-03
2.659772966685704887e+01,1.914312157526854019e-03
2.669808800006285310e+01,1.917632630683317914e-03
2.679818100016564131e+01,1.920936055674572849e-03
2.689772933337371796e+01,1.924213349046375492e-03
2.699777300015557557e+01,1.927498790188780873e-03
2.709816900012083352e+01,1.930787613444099335e-03
2.719818033336196095e+01,1.934055713333915870e-03
2.729788066667970270e+01,1.937305614304627409e-03
2.739796433341689408e+01,1.940559972567043514e-03
2.749802066676784307e+01,1.943805423138906131e-03
2.759780866676010191e+01,1.947034214886522903e-03
2.769786366668995470e+01,1.950263699333811170e-03
2.779795533348806202e+01,1.953486434986458249e-03
2.789810466661583632e+01,1.956703115291026900e-03
2.799822733330074698e+01,1.959911055709506831e-03
2.809779999998863786e+01,1.963093583371434882e-03
2.819781466678250581e+01,1.966282764656436879e-03
2.829782600002363324e+01,1.969465856534770732e-03
2.839792166673578322e+01,1.972644100541168233e-03
2.849804400012362748e+01,1.975815689189653387e-03
2.859773300006054342e+01,1.978966131974565796e-03
2.869784900010563433e+01,1.982122653485081376e-03
2.879792600008659065e+01,1.985270552809268764e-03
2.889797033346258104e+01,1.988410071213070947e-03
2.899801866675261408e+01,1.991542396112765644e-03
2.909812233340926468e+01,1.994669161312970489e-03
2.919776800018735230e+01,1.997774409066843237e-03
2.929783300007693470e+01,2.000885515885019155e-03
2.939793333341367543e+01,2.003990525390816554e-03
2.949787966674193740e+01,2.007083608600190427e-03
2.959806833334732801e+01,2.010177052305051060e-03
2.969780500011984259e+01,2.013249470619239267e-03
2.979791866685263813e+01,2.016326438833296666e-03
2.989790033339522779e+01,2.019392316239058439e-03
2.999814400007016957e+01,2.022459199768870172e-03
3.009818833332974464e+01,2.025512997001605552e-03
3.019772933342028409e+01,2.028544529564059451e-03
3.029811366670764983e+01,2.031594802296563668e-03
3.039779900014400482e+01,2.034616961696587324e-03
3.049781600001733750e+01,2.037642318760758339e-03
3.059794400003738701e+01,2.040664179000638723e-03
3.069804966682568192e+01,2.043678534757861851e-03
3.079812399996444583e+01,2.046685145459361047e-03
3.089811333338730037e+01,2.049682435051111175e-03
3.099785533337853849e+01,2.052665594921575937e-03
3.109784000006038696e+01,2.055649304220935007e-03
3.119798833341337740e+01,2.058631187521485321e-03
3.129798166663385928e+01,2.061601778253469193e-03
3.139773533330298960e+01,2.064558684748975595e-03
3.149773666670080274e+01,2.067517485344793488e-03
3.159781166678294539e+01,2.070471989445439153e-03
3.169784799998160452e+01,2.073418904806169274e-03
3.179798200004734099e+01,2.076362269171612950e-03
3.189799233351368457e+01,2.079295605996454074e-03
3.199803166673518717e+01,2.082223428648625509e-03
3.209814633335918188e+01,2.085147109427541549e-03
3.219815100019332021e+01,2.088061265134839861e-03
3.229772933339700103e+01,2.090956753734349825e-03
3.239773200009949505e+01,2.093858335734843229e-03
3.249772966676391661e+01,2.096753539456186997e-03
3.259803300001658499e+01,2.099651355989322343e-03
3.269813866668846458e+01,2.102537257919384877e-03
3.279773233341984451e+01,2.105402272944580273e-03
3.289779266680125147e+01,2.108274581975838440e-03
3.299808333336841315e+01,2.111147359913460864e-03
3.309778200008440763e+01,2.113997107278845801e-03
3.319781366665847600e+01,2.116850309948720317e-03
3.329788999992888421e+01,2.119698731514704868e-03
3.339796866674441844e+01,2.122541184571658662e-03
3.349772966676391661e+01,2.125368630207860599e-03
3.359785266686230898e+01,2.128200348729761878e-03
3.369784033345058560e+01,2.131022274712541555e-03
3.379789900011382997e+01,2.133840257594987137e-03
3.389802066667471081e+01,2.136654080181081376e-03
3.399793733342085034e+01,2.139456242880291917e-03
3.409797466674353927e+01,2.142255905810438836e-03
3.419798800011631101e+01,2.145049030770734486e-03
3.429810100013855845e+01,2.147839083492321041e-03
3.439818700007162988e+01,2.150622545869306824e-03
3.449780000012833625e+01,2.153387075862650026e-03
3.459798800002317876e+01,2.156161767040848127e-03
3.469820766674820334e+01,2.158932474258781244e-03
3.479782433330547065e+01,2.161680939264652192e-03
3.489786166686099023e+01,2.164435395150599885e-03
3.499779933353420347e+01,2.167181509783865090e-03
3.509779899998102337e+01,2.169923750382702406e-03
3.519783366669435054e+01,2.172661389958239087e-03
3.529791766672860831e+01,2.175394835051827798e-03
3.539772933349013329e+01,2.178115339979409641e-03
3.549773300008382648e+01,2.180835588227049426e-03
3.559783266682643443e+01,2.183552965354003395e-03
3.569792833330575377e+01,2.186264769540941649e-03
3.579807266674470156e+01,2.188972444213468059e-03
3.589812800008803606e+01,2.191672290421073886e-03
3.599812833347823471e+01,2.194365257010583159e-03
3.609787566668819636e+01,2.197046056191843087e-03
3.619792366668116301e+01,2.199729583623755320e-03
3.629798233346082270e+01,2.202408054822275075e-03
3.639788933331146836e+01,2.205077154310659468e-03
3.649815666687209159e+01,2.207750562579430167e-03
3.659815033338963985e+01,2.210411386841354322e-03
3.669773233332671225e+01,2.213056027155629879e-03
3.679787899996154010e+01,2.215710418180822511e-03
3.689806899998802692e+01,2.218360711822155856e-03
3.699781033338513225e+01,2.220993942501722600e-03
3.709793766681104898e+01,2.223632167996879121e-03
3.719781166675966233e+01,2.226258549276870571e-03
3.729808200011029840e+01,2.228890176267604977e-03
3.739806533337105066e+01,2.231509122705382757e-03
3.749797366675920784e+01,2.234120985863956473e-03
3.759795400011353195e+01,2.236729624936123050e-03
3.769818866671994328e+01,2.239339788105879081e-03
3.779775533347856253e+01,2.241927504396626792e-03
3.789786833350080997e+01,2.244524358657697637e-03
3.799788866681046784e+01,2.247113756405252037e-03
3.809774899994954467e+01,2.249693988446795426e-03
3.819782933336682618e+01,2.252274883516730553e-03
3.829798566678073257e+01,2.254852720278218911e-03
3.839804566686507314e+01,2.257423078954105995e-03
3.849773566669318825e+01,2.259978978337414714e-03
3.859805266675539315e+01,2.262545974594293210e-03
3.869774833344854414e+01,2.265092137342003889e-03
3.879782166681252420e+01,2.267643011766214481e-03
3.889792700007092208e+01,2.270189769556055746e-03
3.899794933339580894e+01,2.272729501636527264e-03
3.909810166677925736e+01,2.275267625599486799e-03
3.919775000005029142e+01,2.277788113969652500e-03
3.929788866674061865e+01,2.280316130392486852e-03
3.939798400015570223e+01,2.282838181636788651e-03
3.949772966676391661e+01,2.285346589464167747e-03
3.959776066686026752e+01,2.287857338999770441e-03
3.969789033348206431e+01,2.290365728340429570e-03
3.979792266676668078e+01,2.292866858329078127e-03
