Time [s],Voltage [V]
0.000000000000000000e+00,1.579773563577670670e-03
9.737166657578200102e-02,1.589788297882095258e-03
1.974356666905805469e-01,1.599212796939991242e-03
2.976726666092872620e-01,1.608404604935259347e-03
3.975046665873378515e-01,1.617359988101947556e-03
4.976799999130889773e-01,1.626280480347661300e-03
5.976643332978710532e-01,1.635119504211561374e-03
6.976519998861476779e-01,1.643576260320518505e-03
7.979496666230261326e-01,1.651779041017249630e-03
8.975443332456052303e-01,1.660072755088336325e-03
9.972469999920576811e-01,1.668382364370161151e-03
1.098042333265766501e+00,1.676407489149954032e-03
1.197418999974615872e+00,1.684077726471812364e-03
1.297576999873854220e+00,1.691973951837326667e-03
1.397333333268761635e+00,1.699859701566913250e-03
1.497389000025577843e+00,1.707287195947770637e-03
1.597244333242997527e+00,1.714697875498630026e-03
1.697367333341389894e+00,1.722027416800735958e-03
1.797354000038467348e+00,1.729342874349868147e-03
1.897374333231709898e+00,1.736506345978372544e-03
1.997328999917954206e+00,1.743663269161122107e-03
2.097477999981492758e+00,1.750746733134491123e-03
2.197337333345785737e+00,1.757751531616872157e-03
2.297802999964915216e+00,1.764740238851974109e-03
2.397566333296708763e+00,1.771621302928704823e-03
2.497438666643574834e+00,1.778435843702527415e-03
2.597406666609458625e+00,1.785192194681824380e-03
2.697593333316035569e+00,1.791898363335283836e-03
2.797314333263784647e+00,1.798509355439125833e-03
2.897312999935820699e+00,1.805086678514280585e-03
2.997409999952651560e+00,1.811610770278806407e-03
3.097999333287589252e+00,1.818106781368270756e-03
3.197543999995104969e+00,1.824475947332118448e-03
3.297119666705839336e+00,1.830787998078003010e-03
3.397402000031434000e+00,1.837085105466391283e-03
3.497869666549377143e+00,1.843333734514029411e-03
3.597264666575938463e+00,1.849458764106191519e-03
3.697582999942824244e+00,1.855612764036987730e-03
3.797430000035092235e+00,1.861685724359682988e-03
3.897490999894216657e+00,1.867719530353451150e-03
3.997607666649855673e+00,1.873704423329208835e-03
4.097317000036127865e+00,1.879613000561186544e-03
4.197416666662320495e+00,1.885492543487862901e-03
4.297500333283096552e+00,1.891318892571088994e-03
4.397369999904185534e+00,1.897084158439656630e-03
4.498017333331517875e+00,1.902877020616381733e-03
4.597565999953076243e+00,1.908563037573580588e-03
4.697486333316192031e+00,1.914226669210913456e-03
4.797645999933592975e+00,1.919860014060316509e-03
4.897374333231709898e+00,1.925425477351569870e-03
4.997513333219103515e+00,1.930970061507515613e-03
5.097258999943733215e+00,1.936449238587796464e-03
5.197547333315014839e+00,1.941917993607230383e-03
5.297448333236388862e+00,1.947351064511741812e-03
5.397319666692055762e+00,1.952745971823175407e-03
5.497311666607856750e+00,1.958110786339482996e-03
5.597153666662052274e+00,1.963431002258040833e-03
5.697295999969355762e+00,1.968730533573161915e-03
5.797640666714869440e+00,1.974003917574630642e-03
5.897413999889977276e+00,1.979210698938590508e-03
5.997989333234727383e+00,1.984424456226599725e-03
6.097163666621781886e+00,1.989543223331041895e-03
6.197819666587747633e+00,1.994707151769289054e-03
6.297761333291418850e+00,1.999803826546311079e-03
6.398006999981589615e+00,2.004885974214213294e-03
6.497779666562564671e+00,2.009914880633362905e-03
6.597691666684113443e+00,2.014922157692224450e-03
6.697231999947689474e+00,2.019882892445767214e-03
6.797677999944426119e+00,2.024861122822956862e-03
6.897295333328656852e+00,2.029771461341973830e-03
6.998048666631802917e+00,2.034711236182763696e-03
7.097278333269059658e+00,2.039550798371635078e-03
7.197443999932147563e+00,2.044410938243574390e-03
7.297228000010363758e+00,2.049228112904068200e-03
7.397370333317667246e+00,2.054038658919194599e-03
7.497446333291009068e+00,2.058822675890826029e-03
7.597442999947816133e+00,2.063579686162090969e-03
7.697483333293348551e+00,2.068314240259949005e-03
7.797509333235211670e+00,2.073026031327009945e-03
7.897307333303615451e+00,2.077705635544063994e-03
7.997271999949589372e+00,2.082372140406255501e-03
8.097493333276361227e+00,2.087030178764861556e-03
8.198039666633121669e+00,2.091683317705260101e-03
8.297320999903604388e+00,2.096258812163753066e-03
8.397242666571401060e+00,2.100845211535664041e-03
8.497435333323664963e+00,2.105425871441904927e-03
8.597315999912098050e+00,2.109974711426531105e-03
8.697608333313837647e+00,2.114525228566429584e-03
8.797381666605360806e+00,2.119035785103258462e-03
8.897289333282969892e+00,2.123536573142269842e-03
8.997933666687458754e+00,2.128055088346995308e-03
9.097404333297163248e+00,2.132506225200909294e-03
9.197515666717663407e+00,2.136968115864805104e-03
9.297551000025123358e+00,2.141399530550440813e-03
9.397499999962747097e+00,2.145811019420556815e-03
9.497393999947234988e+00,2.150204384495308166e-03
9.598183666705153883e+00,2.154621628609409544e-03
9.697575333295390010e+00,2.158962728166408194e-03
9.797611000016331673e+00,2.163317425311723011e-03
9.897336333291605115e+00,2.167644486991684646e-03
9.997378999949432909e+00,2.171971531288083811e-03
1.009742966655176133e+01,2.176285497541266024e-03
1.019760333327576518e+01,2.180591705150537740e-03
1.029732333321589977e+01,2.184865813699290484e-03
1.039724899991415441e+01,2.189136514504955947e-03
1.049763933336362243e+01,2.193415141620702353e-03
1.059753466665279120e+01,2.197661185720930447e-03
1.069771233329083771e+01,2.201908111189899118e-03
1.079748266655951738e+01,2.206122167658715067e-03
1.089707766671199352e+01,2.210304505852622118e-03
1.099748099991120398e+01,2.214507436145307477e-03
1.109721433336380869e+01,2.218669237617506337e-03
1.119719999993685633e+01,2.222828671407310868e-03
1.129815099993720651e+01,2.227015356129970723e-03
1.139737199991941452e+01,2.231117845439592809e-03
1.149768599995877594e+01,2.235253173211434324e-03
1.159744133334606886e+01,2.239353342756779039e-03
1.169774566660635173e+01,2.243464075213518275e-03
1.179711366654373705e+01,2.247524756153914532e-03
1.189743766665924340e+01,2.251612903680570970e-03
1.199729033326730132e+01,2.255670461168247671e-03
1.209822499996516854e+01,2.259760638457354240e-03
1.219734966661781073e+01,2.263766554457741394e-03
1.229764233320020139e+01,2.267808856061519045e-03
1.239726633322425187e+01,2.271810781019095726e-03
1.249753900000359863e+01,2.275821552899997408e-03
1.259757333330344409e+01,2.279810842845185308e-03
1.269736999995075166e+01,2.283778856006629492e-03
1.279749200004152954e+01,2.287748055934163156e-03
1.289728366665076464e+01,2.291692543773950035e-03
1.299761566659435630e+01,2.295646791913781657e-03
1.309731366671621799e+01,2.299564627472651997e-03
1.319756766664795578e+01,2.303492921239459583e-03
1.329761099989991635e+01,2.307401667526656937e-03
1.339732966665178537e+01,2.311286596054760306e-03
1.349789566663093865e+01,2.315193373282522626e-03
1.359771000000182539e+01,2.319059959170586757e-03
1.369730866665486246e+01,2.322907369578522657e-03
1.379732600005809218e+01,2.326760168413345969e-03
1.389770699990913272e+01,2.330616204371415822e-03
1.399734499992337078e+01,2.334432646924206045e-03
1.409805899998173118e+01,2.338278753136052279e-03
1.419746933330316097e+01,2.342064457443163682e-03
1.429709733324125409e+01,2.345847947128696081e-03
1.439804733323398978e+01,2.349670996368903933e-03
1.449745266663376242e+01,2.353425156707247574e-03
1.459812566661275923e+01,2.357216763084515367e-03
1.469755399995483458e+01,2.360951269898113429e-03
1.479771599988453090e+01,2.364703141282398224e-03
1.489779233327135444e+01,2.368441667196811897e-03
1.499746533331926912e+01,2.372155133942153733e-03
1.509820433333516121e+01,2.375898264174819158e-03
1.519757866661529988e+01,2.379580865872147483e-03
1.529788366658613086e+01,2.383288143333695940e-03
1.539774333336390555e+01,2.386969247642867220e-03
1.549774266663007438e+01,2.390645867580114790e-03
1.559748666652012616e+01,2.394303863908449955e-03
1.569727566663641483e+01,2.397954541920471489e-03
1.579820399999152869e+01,2.401637512221822118e-03
1.589789266663137823e+01,2.405266064022106281e-03
1.599790399998892099e+01,2.408897278156615484e-03
1.609758133336436003e+01,2.412507400383708325e-03
1.619749499997124076e+01,2.416117186975051071e-03
1.629772099992260337e+01,2.419729397655103528e-03
1.639750800002366304e+01,2.423317057546258910e-03
1.649712166655808687e+01,2.426889884816699292e-03
1.659732599987182766e+01,2.430475314669758649e-03
1.669738733326084912e+01,2.434047125313371605e-03
1.679743666655849665e+01,2.437610099962017173e-03
1.689736333338078111e+01,2.441160401532731054e-03
1.699761833332013339e+01,2.444714115411785772e-03
1.709748533321544528e+01,2.448245944314129431e-03
1.719722999993246049e+01,2.451765432553259551e-03
1.729720533324871212e+01,2.455285109474637448e-03
1.739758599991910160e+01,2.458811135902743902e-03
1.749746366660110652e+01,2.462311703926893351e-03
1.759808133332990110e+01,2.465830439226646825e-03
1.769735899998340756e+01,2.469294757005253537e-03
1.779768499999772757e+01,2.472788119323539834e-03
1.789748633326962590e+01,2.476255781925705730e-03
1.799742799997329712e+01,2.479720980524649683e-03
1.809721499995794147e+01,2.483173575035324890e-03
1.819761433324310929e+01,2.486640141026168205e-03
1.829741533321794122e+01,2.490078962353903767e-03
1.839731733337976038e+01,2.493514275627497015e-03
1.849735766660887748e+01,2.496947426497039737e-03
1.859747666656039655e+01,2.500376432103213788e-03
1.869757866661529988e+01,2.503798096951027723e-03
1.879780066665261984e+01,2.507212522758247696e-03
1.889763966668397188e+01,2.510602432571479303e-03
1.899767499999143183e+01,2.513991575763282246e-03
1.909752866660710424e+01,2.517367197322586611e-03
1.919783566670957953e+01,2.520750787220722190e-03
1.929759066668339074e+01,2.524108497129695216e-03
1.939796766662038863e+01,2.527479889260518531e-03
1.949748633324634284e+01,2.530815321660284407e-03
1.959782266663387418e+01,2.534171024326423681e-03
1.969726766657549888e+01,2.537489901112552175e-03
1.979745799989905208e+01,2.540826642805443791e-03
1.989777233323547989e+01,2.544160518622484105e-03
1.999757733324076980e+01,2.547470573623165924e-03
2.009748766664415598e+01,2.550777288297615981e-03
2.019812366669066250e+01,2.554101161987109517e-03
2.029743299994152039e+01,2.557374522884928343e-03
2.039761233329772949e+01,2.560669875308344261e-03
2.049729166668839753e+01,2.563942169577503125e-03
2.059780799993313849e+01,2.567235317022471819e-03
2.069748433330096304e+01,2.570494428621910958e-03
2.079756066668778658e+01,2.573760144960298563e-03
2.089738633332308382e+01,2.577011271846605701e-03
2.099736999988090247e+01,2.580261180816311936e-03
2.109781700000166893e+01,2.583519790742533351e-03
2.119720299995969981e+01,2.586737759994139647e-03
2.129822366661392152e+01,2.590002370173196886e-03
2.139732866664417088e+01,2.593198966605313703e-03
2.149758999992627650e+01,2.596426759031628118e-03
2.159763633331749588e+01,2.599641566228426751e-03
2.169741899997461587e+01,2.602841920906636373e-03
2.179751966660842299e+01,2.606046527346478868e-03
2.189734133332967758e+01,2.609236322862827639e-03
2.199748966656625271e+01,2.612426690019420232e-03
2.209751600003801286e+01,2.615604372579328606e-03
2.219722233328502625e+01,2.618765557666280670e-03
2.229737666656728834e+01,2.621934617033733813e-03
2.239718800003174692e+01,2.625086546521247094e-03
2.249806566664483398e+01,2.628265817888101718e-03
2.259740333328954875e+01,2.631390368443305323e-03
2.269778999988920987e+01,2.634541712749651193e-03
2.279731066664680839e+01,2.637659752337601603e-03
2.289779266668483615e+01,2.640801764531509194e-03
2.299755399988498539e+01,2.643915166584371017e-03
2.309795533330179751e+01,2.647042465022916933e-03
2.319759466662071645e+01,2.650140035818867451e-03
2.329741499992087483e+01,2.653237281536177314e-03
2.339753933320753276e+01,2.656338009719480704e-03
2.349747866671532393e+01,2.659427100539381306e-03
2.359743033326230943e+01,2.662510703285241118e-03
2.369753566663712263e+01,2.665593198179249876e-03
2.379730133328121156e+01,2.668659444928803311e-03
2.389756766660138965e+01,2.671735291361736556e-03
2.399734966666437685e+01,2.674790553893541083e-03
2.409821633331011981e+01,2.677873257542450359e-03
2.419737933319993317e+01,2.680898271942025891e-03
2.429765166656579822e+01,2.683951494138942396e-03
2.439761366660241038e+01,2.686989663375819858e-03
2.449710899998899549e+01,2.690008127602062839e-03
2.459806666662916541e+01,2.693065360089300087e-03
2.469730533333495259e+01,2.696065078214013051e-03
2.479748333327006549e+01,2.699087735121269600e-03
2.489796133339405060e+01,2.702113973612009935e-03
2.499751066672615707e+01,2.705106873784370036e-03
2.509761933318804950e+01,2.708111236004756561e-03
2.519748233328573406e+01,2.711099407155782848e-03
2.529748199996538460e+01,2.714084557381825011e-03
2.539727666659746319e+01,2.717057878308658161e-03
2.549743599991779774e+01,2.720036349557823120e-03
2.559739133331459016e+01,2.723003067189651294e-03
2.569722333329264075e+01,2.725960473717432397e-03
2.579738333320710808e+01,2.728921942442564998e-03
2.589815766655374318e+01,2.731895880239332188e-03
2.599736933328676969e+01,2.734818142296529565e-03
2.609750399994663894e+01,2.737762017689342534e-03
2.619755999988410622e+01,2.740698008104019371e-03
2.629734299995470792e+01,2.743620460856003099e-03
2.639755499991588295e+01,2.746549943685300515e-03
2.649744733329862356e+01,2.749464582301309242e-03
2.659718866657931358e+01,2.752369357188500301e-03
2.669765066658146679e+01,2.755289627673099002e-03
2.679772933328058571e+01,2.758193295100701617e-03
2.689727466658223420e+01,2.761076102543350876e-03
2.699774233333300799e+01,2.763980194646095331e-03
2.709729799989145249e+01,2.766852568126888182e-03
2.719740599987562746e+01,2.769735521316707416e-03
2.729775633325334638e+01,2.772620083374220668e-03
2.739756266656331718e+01,2.775483695824140958e-03
2.749743233330082148e+01,2.778343842823737409e-03
2.759787666657939553e+01,2.781215138186726461e-03
2.769770466664340347e+01,2.784063559812326519e-03
2.779755499993916601e+01,2.786907398203694337e-03
2.789778166660107672e+01,2.789756724825001675e-03
2.799800333334133029e+01,2.792600690286544188e-03
2.809761733328923583e+01,2.795422260968432292e-03
2.819759833323769271e+01,2.798249083402296403e-03
2.829750299989245832e+01,2.801068620899069446e-03
2.839796166657470167e+01,2.803897028323556247e-03
2.849790900002699345e+01,2.806705375877129385e-03
2.859841400000732392e+01,2.809524089379425611e-03
2.869776366662699729e+01,2.812305188686406963e-03
2.879726866667624563e+01,2.815085456495181222e-03
2.889712166658136994e+01,2.817870251356100093e-03
2.899799699999857694e+01,2.820678287271755503e-03
2.909750533325131983e+01,2.823443094743002639e-03
2.919778633327223361e+01,2.826224184928765454e-03
2.929763499996624887e+01,2.828988127920595286e-03
2.939760499994736165e+01,2.831750288767047666e-03
2.949737966654356569e+01,2.834501938384437550e-03
2.959807866660412401e+01,2.837273914368108538e-03
2.969734533329028636e+01,2.840001397528847931e-03
2.979800299997441471e+01,2.842761980733834060e-03
2.989736833330243826e+01,2.845482079432704210e-03
2.999803666665684432e+01,2.848232754235697356e-03
3.009768466663081199e+01,2.850950515355707426e-03
3.019740299996919930e+01,2.853665195762984837e-03
3.029730766662396491e+01,2.856379948738553467e-03
3.039737566665280610e+01,2.859094137765254458e-03
3.049740166659466922e+01,2.861802199154154201e-03
3.059813233325257897e+01,2.864524313114858497e-03
3.069720366655383259e+01,2.867196681371168929e-03
3.079725566657725722e+01,2.869890580874332082e-03
3.089743899996392429e+01,2.872583075871628158e-03
3.099727699998766184e+01,2.875261386169373871e-03
3.109788000001572073e+01,2.877955282117839689e-03
3.119756899995263666e+01,2.880619829987380535e-03
3.129727933323010802e+01,2.883280109963374561e-03
3.139797866670414805e+01,2.885961880586462511e-03
3.149752566660754383e+01,2.888608141590265528e-03
3.159727333323098719e+01,2.891254475179436383e-03
3.169775099994149059e+01,2.893915227609779057e-03
3.179741899995133281e+01,2.896549695861264009e-03
3.189766799996141344e+01,2.899194667030277704e-03
3.199749866663478315e+01,2.901823774462190982e-03
3.209733333333861083e+01,2.904448182118535976e-03
3.219739233329892159e+01,2.907073676994018172e-03
3.229800866660661995e+01,2.909708951895131727e-03
3.239741466671694070e+01,2.912307767605668528e-03
3.249738966661971062e+01,2.914916699337733591e-03
3.259759166662115604e+01,2.917526776635677790e-03
3.269716866663657129e+01,2.920115845996824281e-03
3.279762066656257957e+01,2.922722901770817734e-03
3.289741066657006741e+01,2.925308049714357359e-03
3.299730633327271789e+01,2.927891227375317099e-03
3.309732866659760475e+01,2.930472972271463798e-03
3.319733599992468953e+01,2.933049630732720466e-03
3.329810566664673388e+01,2.935641188673118913e-03
3.339732233330141753e+01,2.938188167435201986e-03
3.349741399986669421e+01,2.940752954141009293e-03
3.359768933325540274e+01,2.943317770476606976e-03
3.369757299998309463e+01,2.945867925817034164e-03
3.379741033329628408e+01,2.948412277939208188e-03
3.389789533335715532e+01,2.950968482106923387e-03
3.399757066660095006e+01,2.953499487290643655e-03
3.409754999994765967e+01,2.956033617581531759e-03
3.419727866665925831e+01,2.958556820614171440e-03
3.429733233328443021e+01,2.961083666208162192e-03
3.439745899988338351e+01,2.963607772932101182e-03
3.449757566663902253e+01,2.966127054213740094e-03
3.459749499987810850e+01,2.968636820297851104e-03
3.469757066667079926e+01,2.971145967328496073e-03
3.479757299995981157e+01,2.973649233355447029e-03
3.489740533323492855e+01,2.976143793867768068e-03
3.499776299996301532e+01,2.978647007599984943e-03
3.509727866668254137e+01,2.981124802926557633e-03
3.519746133324224502e+01,2.983614776028903782e-03
3.529736233328003436e+01,2.986093335467150146e-03
3.539733733329921961e+01,2.988569331739707700e-03
3.549726433330215514e+01,2.991039754240937525e-03
3.559733699995558709e+01,2.993509397028871685e-03
3.569719099998474121e+01,2.995969286266856376e-03
3.579741999995894730e+01,2.998434049240547312e-03
3.589819166669622064e+01,3.000907761801879532e-03
3.599757033330388367e+01,3.003342975742513687e-03
3.609757299988996238e+01,3.005789178919744935e-03
3.619754233327694237e+01,3.008230266458668690e-03
3.629754666658118367e+01,3.010667919410080044e-03
3.639769733336288482e+01,3.013104852516711694e-03
3.649736833327915519e+01,3.015525867402081388e-03
3.659748133330140263e+01,3.017953366388891751e-03
3.669811066659167409e+01,3.020389103378191050e-03
3.679759333329275250e+01,3.022792878016718199e-03
3.689761433331295848e+01,3.025205455652815387e-03
3.699762199993710965e+01,3.027613509095358063e-03
3.709772966662421823e+01,3.030019774376422909e-03
3.719781799998600036e+01,3.032421390612193620e-03
3.729756800003815442e+01,3.034810738310256446e-03
3.739776366669684649e+01,3.037206602759863049e-03
3.749752933334093541e+01,3.039588056662946656e-03
3.759751233330462128e+01,3.041970577886694838e-03
3.769730599992908537e+01,3.044344486603151479e-03
3.779748966661281884e+01,3.046723564257898097e-03
3.789747366670053452e+01,3.049093878477943283e-03
3.799749366671312600e+01,3.051461802036127720e-03
3.809750399994663894e+01,3.053825534482378090e-03
3.819734299997799098e+01,3.056181283207154171e-03
3.829731066664680839e+01,3.058536147095038994e-03
3.839749999996274710e+01,3.060892314153357795e-03
3.849710199993569404e+01,3.063230798283688838e-03
3.859813399997074157e+01,3.065598932062935621e-03
3.869762266660109162e+01,3.067927046917500941e-03
3.879759699990972877e+01,3.070262702559841718e-03
3.889737266662996262e+01,3.072589912998179365e-03
3.899745233322028071e+01,3.074920415065236605e-03
3.909737599990330637e+01,3.077243507097740007e-03
3.919778733327984810e+01,3.079574153450204653e-03
3.929741100000683218e+01,3.081882787992188191e-03
3.939743066660594195e+01,3.084196881314869160e-03
3.949755199998617172e+01,3.086509614824207905e-03
3.959794433333445340e+01,3.088824898475560875e-03
3.969708633329719305e+01,3.091107719755883422e-03
3.979792699997778982e+01,3.093425976437174513e-03
