Time [s],Voltage [V]
0.000000000000000000e+00,1.731411777025475838e-04
9.793633327353745699e-02,2.027062399370209694e-04
1.975796666229143739e-01,2.287563051837234428e-04
2.978553333086892962e-01,2.536726593543775542e-04
3.975856667384505272e-01,2.777740562528521490e-04
4.978969999356195331e-01,3.015174704588650684e-04
5.980413332581520081e-01,3.248006776230841436e-04
6.977180000394582748e-01,3.475817140631209338e-04
7.979709999635815620e-01,3.700522001246560506e-04
8.976653333520516753e-01,3.919808311401242785e-04
9.978829999454319477e-01,4.136367920605478954e-04
1.097578666522167623e+00,4.347823782167261524e-04
1.197800000081770122e+00,4.556397792462736065e-04
1.297836333280429244e+00,4.760743992725440053e-04
1.397996000014245510e+00,4.962217265620720401e-04
1.497579000075347722e+00,5.158941220706018136e-04
1.597609333344735205e+00,5.352945742691554102e-04
1.697722333250567317e+00,5.543649327309172490e-04
1.797721333219669759e+00,5.731474770613306314e-04
1.897807666566222906e+00,5.916262394534871393e-04
1.997895666630938649e+00,6.097849762802337809e-04
2.097970000002533197e+00,6.276337661247146120e-04
2.197713333414867520e+00,6.451880848398851070e-04
2.297794666606932878e+00,6.625181149958139391e-04
2.397581666707992554e+00,6.795141765266578607e-04
2.497578999958932400e+00,6.962684430626040703e-04
2.597718000062741339e+00,7.128112673768867338e-04
2.697826000046916306e+00,7.290990465784782503e-04
2.797889999928884208e+00,7.451366292000129220e-04
2.898005666560493410e+00,7.609460061821527463e-04
2.997578666661866009e+00,7.764416840744547445e-04
3.097911666613072157e+00,7.918323232477182151e-04
3.197705333353951573e+00,8.069245251559346768e-04
3.297836333280429244e+00,8.218578774680234279e-04
3.397847333340905607e+00,8.365677880430405196e-04
3.498027333407662809e+00,8.511048559719270072e-04
3.597699000034481287e+00,8.653782864705625300e-04
3.697819666587747633e+00,8.795318629711734899e-04
3.797935333219356835e+00,8.935067119230702664e-04
3.897993999882601202e+00,9.073022749089268077e-04
3.997705666581168771e+00,9.208860947266265997e-04
4.097828333266079426e+00,9.343647240401925210e-04
4.197910333401523530e+00,9.476556407820507311e-04
4.297905333456583321e+00,9.607784471280124807e-04
4.397585999919101596e+00,9.737094811268514781e-04
4.497724666725844145e+00,9.865538672362587566e-04
4.597816333291120827e+00,9.992512008142363789e-04
4.697948000044561923e+00,1.011817812654691945e-03
4.797733333311043680e+00,1.024211086920387686e-03
4.897817666758783162e+00,1.036513354681708673e-03
4.997579333255998790e+00,1.048616484226819927e-03
5.097623666515573859e+00,1.060624545044317867e-03
5.197863000095821917e+00,1.072529715600562764e-03
5.297982333460822701e+00,1.084298072035263204e-03
5.397578666685149074e+00,1.095887016590008697e-03
5.497674000100232661e+00,1.107419120622867709e-03
5.597685666638426483e+00,1.118830151587002844e-03
5.697734666755422950e+00,1.130136136013514588e-03
5.797840666607953608e+00,1.141318134721566041e-03
5.897582000005058944e+00,1.152349691600996085e-03
5.997578999958932400e+00,1.163302153631177397e-03
6.097607000032439828e+00,1.174153012644647744e-03
6.197801999864168465e+00,1.184919281428934617e-03
6.297991666710004210e+00,1.195584768972556174e-03
6.397632666630670428e+00,1.206095016246541782e-03
6.497800999903120100e+00,1.216565478872636604e-03
6.597815666696988046e+00,1.226910169131247962e-03
6.697893999866209924e+00,1.237165433923353552e-03
6.797941000084392726e+00,1.247323360427181208e-03
6.898005999973975122e+00,1.257390845315702575e-03
6.997919666697271168e+00,1.267352900381227060e-03
7.098043666803278029e+00,1.277247375141210214e-03
7.197690999950282276e+00,1.287008586536011676e-03
7.297779666609130800e+00,1.296728307202401568e-03
7.397578999982215464e+00,1.306333485069323484e-03
7.497605333221144974e+00,1.315878226294951454e-03
7.597609333344735205e+00,1.325340200319596136e-03
7.697709333267994225e+00,1.334732232185772277e-03
7.798074666759930551e+00,1.344071509149125272e-03
7.897755666635930538e+00,1.353271857757741212e-03
7.997584666707552969e+00,1.362412414409055594e-03
8.097731666639447212e+00,1.371509944635344262e-03
8.197960666613653302e+00,1.380544300191163202e-03
8.297596999909728765e+00,1.389456914613523006e-03
8.397697666543535888e+00,1.398344184061861388e-03
8.497898333240300417e+00,1.407174915922475853e-03
8.597921666572801769e+00,1.415926463179306618e-03
8.698005666607059538e+00,1.424621479603682336e-03
8.797585333231836557e+00,1.433212992892657096e-03
8.897672999999485910e+00,1.441790053505713617e-03
8.997808666550554335e+00,1.450286488713768956e-03
9.097865333314985037e+00,1.458714703530814179e-03
9.197927333298139274e+00,1.467083903772523285e-03
9.297971999971196055e+00,1.475393516273725784e-03
9.397578666801564395e+00,1.483610298496830775e-03
9.498083666665479541e+00,1.491845413395559861e-03
9.597731000045314431e+00,1.499956250488739765e-03
9.697833333397284150e+00,1.508051292964392382e-03
9.797886666608974338e+00,1.516090772742902971e-03
9.897940666531212628e+00,1.524080030339496246e-03
9.997974666533991694e+00,1.532018741717479544e-03
1.009757866652216762e+01,1.539876000112350152e-03
1.019764999998733401e+01,1.547723872527253554e-03
1.029770733322948217e+01,1.555525607315182395e-03
1.039786066673696041e+01,1.563291040718665491e-03
1.049793299997691065e+01,1.571007752723574576e-03
1.059758299996610731e+01,1.578618783228328496e-03
1.069772733328863978e+01,1.586219196976701266e-03
1.079786933341529220e+01,1.593774161553309417e-03
1.089793900004588068e+01,1.601279386008511770e-03
1.099797499994747341e+01,1.608738778970655089e-03
1.109758000005967915e+01,1.616123944156624970e-03
1.119765066658146679e+01,1.623502277375390209e-03
1.129769999999552965e+01,1.630838532733876016e-03
1.139790966676082462e+01,1.638146887605411743e-03
1.149799566669389606e+01,1.645407547854103435e-03
1.159762233344372362e+01,1.652597431760860361e-03
1.169767133321147412e+01,1.659781123392354858e-03
1.179781199991703033e+01,1.666935535770421332e-03
1.189757900009863079e+01,1.674028509020586680e-03
1.199758299998939037e+01,1.681104465454831250e-03
1.209759300004225224e+01,1.688147872956417741e-03
1.219775366666726768e+01,1.695142367714941138e-03
1.229776966664940119e+01,1.702086555902445177e-03
1.239794599998276681e+01,1.709005626392998221e-03
1.249772733333520591e+01,1.715861950903215492e-03
1.259788966667838395e+01,1.722709461866189177e-03
1.269790233334060758e+01,1.729512362227056399e-03
1.279761500004678965e+01,1.736261257287103742e-03
1.289769366662949324e+01,1.743001792509122228e-03
1.299788766668643802e+01,1.749717449858534347e-03
1.309761733340565115e+01,1.756370147002709638e-03
1.319787766668014228e+01,1.763026830056508339e-03
1.329791933344677091e+01,1.769638204622803971e-03
1.339792400004807860e+01,1.776216997341935333e-03
1.349764733319170773e+01,1.782747877834940913e-03
1.359768466651439667e+01,1.789270421317016788e-03
1.369775166665203869e+01,1.795766542534649656e-03
1.379799333342816681e+01,1.802230796724268959e-03
1.389762600010726601e+01,1.808622707708560338e-03
1.399772833322640508e+01,1.815014701560423247e-03
1.409782600007019937e+01,1.821376685154385468e-03
1.419793899997603148e+01,1.827710330319214007e-03
1.429792200005613267e+01,1.834006897461351333e-03
1.439780733326915652e+01,1.840268924696799539e-03
1.449785833340138197e+01,1.846513296115691576e-03
1.459787166654132307e+01,1.852727671719741438e-03
1.469799566664732993e+01,1.858921643226001683e-03
1.479759466671384871e+01,1.865056457063433027e-03
1.489776933332905173e+01,1.871200292829210913e-03
1.499768666666932404e+01,1.877302339185499746e-03
1.509777433332055807e+01,1.883389152874896406e-03
1.519788333342876285e+01,1.889452003986293949e-03
1.529794366657733917e+01,1.895487068556126441e-03
1.539800533326342702e+01,1.901492332684482679e-03
1.549759466678369790e+01,1.907442568835459500e-03
1.559778566658496857e+01,1.913403429294174146e-03
1.569784866657573730e+01,1.919331566649619836e-03
1.579792400007136166e+01,1.925235576251327872e-03
1.589799600001424551e+01,1.931114762156493784e-03
1.599763566663023084e+01,1.936944305217315303e-03
1.609770666656550020e+01,1.942774954379997317e-03
1.619784399995114654e+01,1.948585476028880667e-03
1.629789500008337200e+01,1.954367226075802867e-03
1.639796266669873148e+01,1.960126382623302368e-03
1.649758399988058954e+01,1.965836643716271145e-03
1.659763199987355620e+01,1.971548244439179885e-03
1.669767433335073292e+01,1.977236539876172684e-03
1.679798933339770883e+01,1.982917441082122055e-03
1.689800799998920411e+01,1.988558904073615963e-03
1.699761100008618087e+01,1.994155076022822645e-03
1.709765000001061708e+01,1.999753772627262029e-03
1.719796533335465938e+01,2.005345843876788284e-03
1.729799733322579414e+01,2.010900254803825102e-03
1.739757899998221546e+01,2.016408126872459503e-03
1.749769800005014986e+01,2.021924209298201196e-03
1.759765566664282233e+01,2.027410031655692713e-03
1.769778833340387791e+01,2.032884187043886449e-03
1.779800866660661995e+01,2.038341951057185200e-03
1.789757900009863079e+01,2.043743456944236564e-03
1.799760166672058403e+01,2.049148688129477213e-03
1.809771733335219324e+01,2.054538172472948534e-03
1.819758366665337235e+01,2.059893640765121225e-03
1.829758066660724580e+01,2.065235613126621857e-03
1.839768666657619178e+01,2.070562958438651978e-03
1.849766733334399760e+01,2.075863305651149196e-03
1.859780933335423470e+01,2.081154720516294621e-03
1.869782733323518187e+01,2.086421399393935221e-03
1.879801133333239704e+01,2.091677687867402914e-03
1.889776833332143724e+01,2.096892713823436498e-03
1.899785833328496665e+01,2.102106399007426345e-03
1.909766566660255194e+01,2.107286820982915213e-03
1.919775366666726768e+01,2.112463380125845051e-03
1.929779900005087256e+01,2.117619446424692190e-03
1.939778966666199267e+01,2.122754584665461144e-03
1.949815033341292292e+01,2.127890673907928930e-03
1.959781999990809709e+01,2.132973654617217885e-03
1.969785899994894862e+01,2.138057838389536246e-03
1.979760499997064471e+01,2.143109691782425427e-03
1.989765066665131599e+01,2.148159376486661037e-03
1.999775500001851469e+01,2.153194780032438149e-03
2.009804333327338099e+01,2.158222287842577469e-03
2.019772833341266960e+01,2.163202678307423171e-03
2.029790066671557724e+01,2.168190611087240233e-03
2.039762033324223012e+01,2.173139407856521273e-03
2.049767266667913646e+01,2.178088207293617067e-03
2.059759133320767432e+01,2.183014027068988592e-03
2.069761533325072378e+01,2.187928787539486757e-03
2.079768799990415573e+01,2.192829796083302016e-03
2.089779766660649329e+01,2.197716588128025613e-03
2.099790400010533631e+01,2.202587312360080284e-03
2.109757900005206466e+01,2.207421370342305209e-03
2.119769166677724570e+01,2.212261026814693783e-03
2.129773500002920628e+01,2.217081805477157282e-03
2.139781033329200000e+01,2.221888715630287656e-03
2.149763300002086908e+01,2.226668250013669279e-03
2.159779133333358914e+01,2.231448672841690808e-03
2.169795233337208629e+01,2.236214125463490549e-03
2.179767866677138954e+01,2.240942517461094047e-03
2.189793933334294707e+01,2.245680134321351683e-03
2.199757899995893240e+01,2.250373389406901646e-03
2.209764566668309271e+01,2.255071771584083937e-03
2.219790399994235486e+01,2.259764171860563151e-03
2.229797799990046769e+01,2.264433067747641422e-03
2.239757899998221546e+01,2.269065211837018644e-03
2.249759700009599328e+01,2.273702079324210670e-03
2.259775666659697890e+01,2.278330851962905024e-03
2.269796366675291210e+01,2.282947195816276836e-03
2.279794866661541164e+01,2.287538805698436338e-03
2.289757899998221546e+01,2.292099775775436644e-03
2.299763166671618819e+01,2.296665720652295468e-03
2.309769233327824622e+01,2.301217695976097866e-03
2.319798566657118499e+01,2.305765924993305026e-03
2.329761000012513250e+01,2.310269662490182282e-03
2.339760800008662045e+01,2.314776156364111055e-03
2.349773000006098300e+01,2.319274096114104164e-03
2.359771333332173526e+01,2.323751728675825176e-03
2.369775366655085236e+01,2.328217875500186718e-03
2.379780833341646940e+01,2.332670655786331284e-03
2.389788100006990135e+01,2.337110262384330291e-03
2.399777733325026929e+01,2.341528140922698262e-03
2.409792099986225367e+01,2.345943044505491813e-03
2.419800933334045112e+01,2.350341618748788899e-03
2.429760233324486762e+01,2.354704667562050775e-03
2.439772599993739277e+01,2.359077155216799272e-03
2.449793099996168166e+01,2.363439353503982328e-03
2.459799366665538400e+01,2.367781557030154867e-03
2.469804333325009793e+01,2.372109426550063349e-03
2.479762966651469469e+01,2.376403593672272389e-03
2.489771300007123500e+01,2.380705472227745076e-03
2.499786400003358722e+01,2.385001953193424673e-03
2.509791600005701184e+01,2.389286547682692181e-03
2.519804633327294141e+01,2.393562074358453109e-03
2.529794166656211019e+01,2.397815252960536388e-03
2.539797500008717179e+01,2.402062051240273690e-03
2.549800533335655928e+01,2.406296526188109186e-03
2.559766199998557568e+01,2.410503121943447565e-03
2.569773100002203137e+01,2.414715074854145022e-03
2.579795933328568935e+01,2.418921697570936002e-03
2.589780700008850545e+01,2.423100429529931234e-03
2.599784866673871875e+01,2.427275417171632747e-03
2.609782500006258488e+01,2.431435876530088549e-03
2.619766899989917874e+01,2.435579114779450917e-03
2.629771633341442794e+01,2.439719108118662376e-03
2.639778266660869122e+01,2.443848248323244113e-03
2.649799033347517252e+01,2.447971613099579960e-03
2.659759733336977661e+01,2.452058806237638298e-03
2.669769133336376399e+01,2.456154533134216784e-03
2.679770999995525926e+01,2.460235767428391087e-03
2.689776799990795553e+01,2.464307247611190015e-03
2.699783333344385028e+01,2.468367715985965785e-03
2.709793100005481392e+01,2.472418231622929702e-03
2.719761733338236809e+01,2.476440955137675440e-03
2.729787933325860649e+01,2.480475737424223462e-03
2.739797600009478629e+01,2.484492738550496838e-03
2.749788733327295631e+01,2.488491261387850827e-03
2.759778933320194483e+01,2.492478427812896014e-03
2.769757866661529988e+01,2.496450178627756134e-03
2.779788433341309428e+01,2.500431526672447849e-03
2.789791900012642145e+01,2.504391223865123830e-03
2.799758066656067967e+01,2.508325379449291483e-03
2.809757899993564934e+01,2.512262054292049938e-03
2.819778866670094430e+01,2.516197261782242116e-03
2.829783966660033911e+01,2.520117064920219911e-03
2.839792000001762062e+01,2.524027611659524113e-03
2.849760599993169308e+01,2.527912454896301397e-03
2.859787766658701003e+01,2.531809806410296928e-03
2.869798233325127512e+01,2.535690396305977784e-03
2.879805166658479720e+01,2.539559408379612505e-03
2.889761133329011500e+01,2.543398633905433019e-03
2.899790566670708358e+01,2.547256069707852250e-03
2.909797800006344914e+01,2.551094889905658990e-03
2.919804499985184520e+01,2.554923485774362318e-03
2.929775266663637012e+01,2.558728412321804434e-03
2.939786433323752135e+01,2.562538836162212008e-03
2.949809600005391985e+01,2.566343913121064014e-03
2.959789600002113730e+01,2.570122788858994391e-03
2.969762566662393510e+01,2.573889260432798368e-03
2.979769266664516181e+01,2.577658725750593335e-03
2.989775333344005048e+01,2.581418230842544986e-03
2.999778333341237158e+01,2.585166906232133459e-03
3.009806633344851434e+01,2.588915389001202570e-03
3.019793566665612161e+01,2.592638820842320738e-03
3.029757900000549853e+01,2.596344327371009203e-03
3.039766566664911807e+01,2.600056804694249497e-03
3.049769733333960176e+01,2.603757748483501687e-03
3.059784399997442961e+01,2.607453474730392611e-03
3.069785599992610514e+01,2.611134806851123005e-03
3.079792533325962722e+01,2.614808856450751180e-03
3.089757866656873375e+01,2.618458327865478413e-03
3.099758266669232398e+01,2.622111338575265366e-03
3.109774999995715916e+01,2.625761004825951164e-03
3.119781266665086150e+01,2.629397584037222128e-03
3.129787666664924473e+01,2.633024972513228236e-03
3.139801933325361460e+01,2.636646836739813590e-03
3.149765133322216570e+01,2.640242985343084145e-03
3.159765833336859941e+01,2.643843845235582368e-03
3.169778866670094430e+01,2.647440330451653490e-03
3.179780266655143350e+01,2.651023872861725788e-03
3.189783699996769428e+01,2.654599422607001585e-03
3.199798666674178094e+01,2.658170397845675305e-03
3.209762266674079001e+01,2.661714462033009428e-03
3.219771100010257214e+01,2.665266023088175371e-03
3.229775166674517095e+01,2.668807325563696264e-03
3.239782366668805480e+01,2.672341206491311849e-03
3.249788066651672125e+01,2.675866065571412718e-03
3.259794299991335720e+01,2.679382657885387344e-03
3.269760700000915676e+01,2.682876883501739054e-03
3.279769466677680612e+01,2.686377595104517089e-03
3.289769166661426425e+01,2.689866797427946550e-03
3.299785866681486368e+01,2.693353611782495216e-03
3.309790200006682426e+01,2.696827845093362208e-03
3.319795899989549071e+01,2.700294315023916460e-03
3.329800499998964369e+01,2.703752201003835343e-03
3.339757900009863079e+01,2.707185662380528872e-03
3.349779900000430644e+01,2.710633261564095089e-03
3.359790933341719210e+01,2.714068971020183567e-03
3.369758400006685406e+01,2.717481701201893314e-03
3.379757866670843214e+01,2.720897371048924991e-03
3.389799233328085393e+01,2.724319304959154069e-03
3.399763399991206825e+01,2.727706988952687851e-03
3.409799933328758925e+01,2.731111310280746884e-03
3.419774666673038155e+01,2.734486778080987609e-03
3.429792166664265096e+01,2.737868830282559791e-03
3.439757866656873375e+01,2.741225579587695024e-03
3.449776566657237709e+01,2.744592353244916516e-03
3.459787233336828649e+01,2.747948667239286449e-03
3.469798566657118499e+01,2.751297599757065830e-03
3.479759433330036700e+01,2.754621981133284492e-03
3.489779866661410779e+01,2.757958552094877218e-03
3.499771266663447022e+01,2.761277803543820807e-03
3.509786266658920795e+01,2.764597254548240273e-03
3.519791733322199434e+01,2.767905934049083062e-03
3.529793200001586229e+01,2.771205713854077088e-03
3.539797499997075647e+01,2.774498875925222787e-03
3.549768400005996227e+01,2.777773553297106790e-03
3.559771066671237350e+01,2.781051175260088222e-03
3.569772800011560321e+01,2.784321017012234261e-03
3.579779966664500535e+01,2.787585179356289779e-03
3.589792233332991600e+01,2.790843565823530707e-03
3.599797666654922068e+01,2.794092318333097485e-03
3.609766433341428638e+01,2.797321821290789899e-03
3.619771066657267511e+01,2.800555596239585193e-03
3.629778533335775137e+01,2.803782945498228645e-03
3.639783333335071802e+01,2.807002116990869531e-03
3.649806633335538208e+01,2.810219925463989382e-03
3.659775900002568960e+01,2.813413145047457403e-03
3.669776733324397355e+01,2.816609238928715220e-03
3.679794866673182696e+01,2.819803614771874967e-03
3.689768199995160103e+01,2.822976520783601617e-03
3.699792366672772914e+01,2.826158394423013837e-03
3.709797200001776218e+01,2.829326948222737805e-03
3.719765299989376217e+01,2.832476750132456589e-03
3.729766366665717214e+01,2.835629846470089435e-03
3.739779000007547438e+01,2.838779460232196145e-03
3.749801099998876452e+01,2.841924925518569348e-03
3.759758266655262560e+01,2.845042967272547532e-03
3.769769599998835474e+01,2.848170908766518763e-03
3.779782166657969356e+01,2.851292438054635597e-03
3.789787233318202198e+01,2.854406262508499617e-03
3.799801766662858427e+01,2.857516216283656398e-03
3.809783366660121828e+01,2.860609181588363338e-03
3.819787466654088348e+01,2.863702371152426589e-03
3.829797399998642504e+01,2.866790628111538612e-03
3.839758766652084887e+01,2.869857236692653722e-03
3.849773800000548363e+01,2.872933688891915992e-03
3.859795866662170738e+01,2.876005623372049347e-03
3.869795699999667704e+01,2.879064108782567778e-03
3.879801099991891533e+01,2.882117688395120433e-03
3.889782899990677834e+01,2.885157502245361359e-03
3.899784600001294166e+01,2.888196824762880380e-03
3.909789800003636628e+01,2.891230672599453839e-03
3.919789833319373429e+01,2.894256442508856379e-03
3.929761699994560331e+01,2.897267230536047962e-03
3.939765666669700295e+01,2.900281251678687652e-03
3.949808533338364214e+01,2.903300508383147797e-03
3.959769233339466155e+01,2.906288667515094775e-03
3.969763766671530902e+01,2.909280596982340497e-03
3.979767733335029334e+01,2.912268972815457505e-03
