Time [s],Voltage [V]
0.000000000000000000e+00,1.020474975059024701e-02
9.758966660592705011e-02,1.021407845239172621e-02
1.980663333088159561e-01,1.022320854971580338e-02
2.980173333780840039e-01,1.023069112147226289e-02
3.978526666760444641e-01,1.023794624845030150e-02
4.978713332675397396e-01,1.024490656857143106e-02
5.978286666795611382e-01,1.025185680314037208e-02
6.976993333082646132e-01,1.025854302194559135e-02
7.981703333789482713e-01,1.026526476911557122e-02
8.976643333444371819e-01,1.027169481745527496e-02
9.976460000034421682e-01,1.027815340705583343e-02
1.098037000047042966e+00,1.028452242532196421e-02
1.198251666733995080e+00,1.029079982828326120e-02
1.297850333387032151e+00,1.029696031600861941e-02
1.397980333305895329e+00,1.030307495458943415e-02
1.498132999986410141e+00,1.030909596895381378e-02
1.598088000086136162e+00,1.031501973844062281e-02
1.697806666605174541e+00,1.032084466387137543e-02
1.798239333438687027e+00,1.032662564687046765e-02
1.898103000014089048e+00,1.033231749668041613e-02
1.997755666612647474e+00,1.033792429830075223e-02
2.097587333293631673e+00,1.034346790581453304e-02
2.197882000124081969e+00,1.034896338157823351e-02
2.297972333384677768e+00,1.035437387448444498e-02
2.397775333374738693e+00,1.035969544087501221e-02
2.497788999928161502e+00,1.036495471904160491e-02
2.597364000044763088e+00,1.037011781455018759e-02
2.697502666735090315e+00,1.037528040581135388e-02
2.797802666667848825e+00,1.038038757191431585e-02
2.897392333368770778e+00,1.038539511481217058e-02
2.998031666618771851e+00,1.039039120531516647e-02
3.097705333377234638e+00,1.039527571490260136e-02
3.197930333437398076e+00,1.040012338109229037e-02
3.297878333367407322e+00,1.040489387699126446e-02
3.397862666635774076e+00,1.040964131411676284e-02
3.497965333284810185e+00,1.041435114567793203e-02
3.597501000040210783e+00,1.041898303264507733e-02
3.698056000052019954e+00,1.042361044461742256e-02
3.797433333355002105e+00,1.042813240080997343e-02
3.897378333378583193e+00,1.043262879088780598e-02
3.997834333335049450e+00,1.043709623122250976e-02
4.097972000017762184e+00,1.044151777437137690e-02
4.197700000018812716e+00,1.044588956773349030e-02
4.297997333342209458e+00,1.045024306319625174e-02
4.397499333368614316e+00,1.045451917213834764e-02
4.497488333261571825e+00,1.045877320226196866e-02
4.597792333341203630e+00,1.046299731743878525e-02
4.697951333364471793e+00,1.046717203549250852e-02
4.797518000006675720e+00,1.047129020568114341e-02
4.897884666686877608e+00,1.047541925542599429e-02
4.998061333317309618e+00,1.047950431492197798e-02
5.097752999980002642e+00,1.048353371940738930e-02
5.198132000048644841e+00,1.048755474365006130e-02
5.297405666671693325e+00,1.049149580154884291e-02
5.397713666665367782e+00,1.049544187392529616e-02
5.497618666617199779e+00,1.049933862278524220e-02
5.597827999969013035e+00,1.050322361931364280e-02
5.698122999980114400e+00,1.050708132028538647e-02
5.797787999967113137e+00,1.051088510670936810e-02
5.897717333282344043e+00,1.051466993403458831e-02
5.997832000022754073e+00,1.051843327542178498e-02
6.098251999937929213e+00,1.052218009873962141e-02
6.198337999987415969e+00,1.052588722638992356e-02
6.297759333392605186e+00,1.052954347283896475e-02
6.397661000024527311e+00,1.053319167595332360e-02
6.497627333388663828e+00,1.053681710493882887e-02
6.597822333336807787e+00,1.054042626002490296e-02
6.697354666772298515e+00,1.054398785018839310e-02
6.797260999912396073e+00,1.054753973182659746e-02
6.898037666687741876e+00,1.055109978691854376e-02
6.997964999987743795e+00,1.055460742259933804e-02
7.097751000081188977e+00,1.055808875223302433e-02
7.197788666700944304e+00,1.056155819454423009e-02
7.297926666680723429e+00,1.056501104395088549e-02
7.397549666697159410e+00,1.056842685466079061e-02
7.497580666677094996e+00,1.057183795425490486e-02
7.597548000048846006e+00,1.057522881169764041e-02
7.697379333316348493e+00,1.057859767608885712e-02
7.797557666664943099e+00,1.058196144316744976e-02
7.897493333322927356e+00,1.058530093744596869e-02
7.997449000016786158e+00,1.058862564032977786e-02
8.097599999979138374e+00,1.059194198578047690e-02
8.197507000062614679e+00,1.059523608703227295e-02
8.298173666698858142e+00,1.059854158519145384e-02
8.397399333422072232e+00,1.060177936269552160e-02
8.498140000039711595e+00,1.060504149563324880e-02
8.597679666709154844e+00,1.060824933125386997e-02
8.697855333331972361e+00,1.061146260695684795e-02
8.798142666695639491e+00,1.061466474232112059e-02
8.897645000019110739e+00,1.061782765754767759e-02
8.997644999995827675e+00,1.062099259025163674e-02
9.097672333358787000e+00,1.062414495043927619e-02
9.198062999988906085e+00,1.062729565631869745e-02
9.297678000060841441e+00,1.063040944507911978e-02
9.397433666745200753e+00,1.063351548221604104e-02
9.497855666675604880e+00,1.063663039412615988e-02
9.597769333398900926e+00,1.063971812219212734e-02
9.697429999941959977e+00,1.064278709024172112e-02
9.797379666706547141e+00,1.064585438616322960e-02
9.898129000095650554e+00,1.064893591817757737e-02
9.997833000030368567e+00,1.065197569774268063e-02
1.009788233332801610e+01,1.065501163465778361e-02
1.019779866666067392e+01,1.065802477423433842e-02
1.029789866670034826e+01,1.066103237363018319e-02
1.039775666664354503e+01,1.066402191519309761e-02
1.049829233344644308e+01,1.066702112625540072e-02
1.059756933338940144e+01,1.066997259361533376e-02
1.069781133334618062e+01,1.067294273414624850e-02
1.079829066665843129e+01,1.067591007164730814e-02
1.089790400001220405e+01,1.067884237691889456e-02
1.099734900007024407e+01,1.068176059377733481e-02
1.109799999999813735e+01,1.068470517293680644e-02
1.119744833337608725e+01,1.068760590864825666e-02
1.129741766664665192e+01,1.069051342826714268e-02
1.139821100002154708e+01,1.069343663994215196e-02
1.149763700005132705e+01,1.069631231894210485e-02
1.159773766668513417e+01,1.069919987064249685e-02
1.169760166667401791e+01,1.070207321795622890e-02
1.179789466666989028e+01,1.070494823662554440e-02
1.189778866665437818e+01,1.070779634556293970e-02
1.199807466671336442e+01,1.071064699761383604e-02
1.209810600010678172e+01,1.071348194769239544e-02
1.219768233329523355e+01,1.071629576099170436e-02
1.229774499998893589e+01,1.071911518722733041e-02
1.239742366666905582e+01,1.072191584373924887e-02
1.249746433342806995e+01,1.072471884703879268e-02
1.259753233334049582e+01,1.072751492847713595e-02
1.269775000005029142e+01,1.073030764048405264e-02
1.279791866661980748e+01,1.073309159021757636e-02
1.289814433339051902e+01,1.073586987767606929e-02
1.299777833325788379e+01,1.073862473271188639e-02
1.309775333339348435e+01,1.074138212334303441e-02
1.319842366664670408e+01,1.074415187043233078e-02
1.329813566675875336e+01,1.074688865719169995e-02
1.339836766663938761e+01,1.074963325730322015e-02
1.349788233335129917e+01,1.075235201271374820e-02
1.359815633331891149e+01,1.075508552684641822e-02
1.369817866664379835e+01,1.075780622115022657e-02
1.379788366670254618e+01,1.076051251536620443e-02
1.389740999997593462e+01,1.076320837042193425e-02
1.399809966667089611e+01,1.076593021065651995e-02
1.409787833341397345e+01,1.076862209784046689e-02
1.419807100004982203e+01,1.077131997483549847e-02
1.429809700010810047e+01,1.077400834295240938e-02
1.439752333331853151e+01,1.077667577647057305e-02
1.449774200003594160e+01,1.077935976200076855e-02
1.459771700005512685e+01,1.078203267120010980e-02
1.469734199997037649e+01,1.078469185646862248e-02
1.479818566667381674e+01,1.078737928901377444e-02
1.489817266666796058e+01,1.079003979590627098e-02
1.499763266672380269e+01,1.079268238855043971e-02
1.509734133328311145e+01,1.079532784656337709e-02
1.519798699999228120e+01,1.079798877755248389e-02
1.529793333332054317e+01,1.080060362422320501e-02
1.539766366663388908e+01,1.080320457144267471e-02
1.549769166670739651e+01,1.080580488864123397e-02
1.559795633342582732e+01,1.080840280525520621e-02
1.569819266675040126e+01,1.081099131055198587e-02
1.579805066669359803e+01,1.081356130184992458e-02
1.589784400002099574e+01,1.081612079346386431e-02
1.599748899997211993e+01,1.081866755181856189e-02
1.609787033335305750e+01,1.082122399092629375e-02
1.619790400005877018e+01,1.082376233388941331e-02
1.629786566668190062e+01,1.082628951674608798e-02
1.639758200000505894e+01,1.082880108541925228e-02
1.649755866674240679e+01,1.083130965743838228e-02
1.659791066672187299e+01,1.083381790945577711e-02
1.669755000004079193e+01,1.083629857988615934e-02
1.679800266667734832e+01,1.083878952821743132e-02
1.689763133332598954e+01,1.084125400193022316e-02
1.699808699998538941e+01,1.084375394603670321e-02
1.709771666675806046e+01,1.084622914934931653e-02
1.719827499997336417e+01,1.084872364237560519e-02
1.729782733344472945e+01,1.085118989573581084e-02
1.739772400003857911e+01,1.085366187379427881e-02
1.749807766673620790e+01,1.085614283431112631e-02
1.759818366670515388e+01,1.085861587347215773e-02
1.769779300002846867e+01,1.086107539961840389e-02
1.779810766666196287e+01,1.086355165280639828e-02
1.789755433332175016e+01,1.086600637539745368e-02
1.799779766669962555e+01,1.086848126212436837e-02
1.809791733336169273e+01,1.087095422180816250e-02
1.819774733332451433e+01,1.087342179109127352e-02
1.829734466667287052e+01,1.087588602458328113e-02
1.839753299998119473e+01,1.087836799968206272e-02
1.849825133336707950e+01,1.088086697322978268e-02
1.859736300003714859e+01,1.088332583375952942e-02
1.869790999998804182e+01,1.088577461477711721e-02
1.879761000000871718e+01,1.088819826968420203e-02
1.889798900007735938e+01,1.089063388849051059e-02
1.899786133342422545e+01,1.089305267270081895e-02
1.909755399997811764e+01,1.089546257116187980e-02
1.919796566665172577e+01,1.089788525312372462e-02
1.929765900003258139e+01,1.090028602182200636e-02
1.939774566667620093e+01,1.090269165277544909e-02
1.949795200000517070e+01,1.090509551521609208e-02
1.959804966661613435e+01,1.090749211327311785e-02
1.969756800006143749e+01,1.090987020849524571e-02
1.979797566658817232e+01,1.091226485693313694e-02
1.989781766675878316e+01,1.091464131771868740e-02
1.999769200000446290e+01,1.091701384468582794e-02
2.009763866674620658e+01,1.091938336317776169e-02
2.019751533330418169e+01,1.092174648114063382e-02
2.029786866670474410e+01,1.092411625631671372e-02
2.039770033326931298e+01,1.092647295856278428e-02
2.049789933336433023e+01,1.092883423503703336e-02
2.059816300007514656e+01,1.093119294872796007e-02
2.069761566666420549e+01,1.093352856682134645e-02
2.079803599999286234e+01,1.093588287337746504e-02
2.089759133337065578e+01,1.093821291806602522e-02
2.099804333341307938e+01,1.094055995206190228e-02
2.109811799996532500e+01,1.094289419975876150e-02
2.119800500001292676e+01,1.094522014071691758e-02
2.129809400008525699e+01,1.094754686976409479e-02
2.139751733338925987e+01,1.094985426551709634e-02
2.149777266662567854e+01,1.095217709779936106e-02
2.159799500007648021e+01,1.095449530101992239e-02
2.169789333327207714e+01,1.095680218679183707e-02
2.179737866669893265e+01,1.095909576391247871e-02
2.189817166666034609e+01,1.096141567249515718e-02
2.199798666662536561e+01,1.096370930766659736e-02
2.209794899995904416e+01,1.096600258307234635e-02
2.219846766663249582e+01,1.096830487596681461e-02
2.229781566665042192e+01,1.097057668696687846e-02
2.239804266672581434e+01,1.097286492425270793e-02
2.249848766671493649e+01,1.097515445840148950e-02
2.259763966663740575e+01,1.097741092827491868e-02
2.269752600009087473e+01,1.097968052333922646e-02
2.279763066675513983e+01,1.098195148954947409e-02
2.289803499996196479e+01,1.098422566614978141e-02
2.299753466667607427e+01,1.098647582885430019e-02
2.309800033341161907e+01,1.098874430108067422e-02
2.319806099997367710e+01,1.099100011852029157e-02
2.329752233333420008e+01,1.099323897441923346e-02
2.339802533329930156e+01,1.099549780626207958e-02
2.349784600001294166e+01,1.099773786991259036e-02
2.359750066662672907e+01,1.099997081774215998e-02
2.369806833332404494e+01,1.100222081052631626e-02
2.379764000000432134e+01,1.100444516432513495e-02
2.389750400010962039e+01,1.100667271681408585e-02
2.399766500003170222e+01,1.100890356440345670e-02
2.409784533339552581e+01,1.101113152889618418e-02
2.419793666666373610e+01,1.101335422639213198e-02
2.429788266669493169e+01,1.101557043931590540e-02
2.439759933343157172e+01,1.101777834507298992e-02
2.449727833329234272e+01,1.101998222210260822e-02
2.459809066669549793e+01,1.102220793014994753e-02
2.469760233326815069e+01,1.102440176179206137e-02
2.479785866662859917e+01,1.102660885682248126e-02
2.489818699995521456e+01,1.102881439020901230e-02
2.499749099998734891e+01,1.103099432739386605e-02
2.509777733334340155e+01,1.103319274286008837e-02
2.519805966666899621e+01,1.103538799154660417e-02
2.529815066664014012e+01,1.103757600354952732e-02
2.539766266662627459e+01,1.103974836119280163e-02
2.549751566664781421e+01,1.104192385123591545e-02
2.559762400004547089e+01,1.104410159724924373e-02
2.569779166672378778e+01,1.104627751992133707e-02
2.579768299998249859e+01,1.104844435456900364e-02
2.589785033336374909e+01,1.105061409925949326e-02
2.599779300007503480e+01,1.105277592341604755e-02
2.609757300000637770e+01,1.105493120263910042e-02
2.619791633333079517e+01,1.105709561740570411e-02
2.629800133337266743e+01,1.105925144735745227e-02
2.639784433331806213e+01,1.106139908368772989e-02
2.649821699992753565e+01,1.106355512908139063e-02
2.659743933333083987e+01,1.106568354069652725e-02
2.669764466665219516e+01,1.106783010473313088e-02
2.679784133331850171e+01,1.106997355207080605e-02
2.689747600001282990e+01,1.107210208733263104e-02
2.699787199997808784e+01,1.107424398964495550e-02
2.709760933334473521e+01,1.107636897631133349e-02
2.719807233335450292e+01,1.107850655577187829e-02
2.729802700004074723e+01,1.108063047942835048e-02
2.739840366668067873e+01,1.108276053646053277e-02
2.749766700004693121e+01,1.108486419195785569e-02
2.759813633328303695e+01,1.108699061179119552e-02
2.769731833331752568e+01,1.108908704489360367e-02
2.779793866665568203e+01,1.109121111497452482e-02
2.789725899999029934e+01,1.109330502747432438e-02
2.799769899994134903e+01,1.109541981912197037e-02
2.809746866661589593e+01,1.109751779947809776e-02
2.819754466658923775e+01,1.109961953772766081e-02
2.829764333332423121e+01,1.110171908008828270e-02
2.839780833327677101e+01,1.110381735578859150e-02
2.849773733329493552e+01,1.110590805508300874e-02
2.859747899998910725e+01,1.110799222963064145e-02
2.869799166661687195e+01,1.111008989852983395e-02
2.879802400001790375e+01,1.111217495239088734e-02
2.889734633336775005e+01,1.111424100094081033e-02
2.899759499996434897e+01,1.111632308183833559e-02
2.909822866669856012e+01,1.111841040087926773e-02
2.919749766669701785e+01,1.112046671829275066e-02
2.929809766658581793e+01,1.112254788654303515e-02
2.939790833333972842e+01,1.112461003050753752e-02
2.949801099998876452e+01,1.112667552265030925e-02
2.959780800004955381e+01,1.112873204274775728e-02
2.969793066673446447e+01,1.113079261127301010e-02
2.979797900002449751e+01,1.113284899739491740e-02
2.989790600002743304e+01,1.113490025421255691e-02
2.999755400000140071e+01,1.113694317231461728e-02
3.009779900009743869e+01,1.113899570973777772e-02
3.019788533332757652e+01,1.114104238823729505e-02
3.029785166669171304e+01,1.114308402078399186e-02
3.039806166663765907e+01,1.114512804120189673e-02
3.049741566670127213e+01,1.114715205410017271e-02
3.059768400003667921e+01,1.114919213334387635e-02
3.069759666663594544e+01,1.115122242920121506e-02
3.079777299996931106e+01,1.115325554188262812e-02
3.089786466665100306e+01,1.115528440642435740e-02
3.099815266672521830e+01,1.115731472591515415e-02
3.109760300000198185e+01,1.115932560257033510e-02
3.119766800000797957e+01,1.116134642213506903e-02
3.129794633330311626e+01,1.116336906015143009e-02
3.139830766664817929e+01,1.116539088818751906e-02
3.149821266671642661e+01,1.116740106633697972e-02
3.159769800002686679e+01,1.116940037586443626e-02
3.169764399994164705e+01,1.117140651820815352e-02
3.179792633326724172e+01,1.117341698005239713e-02
3.189783200004603714e+01,1.117541747999336102e-02
3.199810033338144422e+01,1.117742283427930992e-02
3.209801700001116842e+01,1.117941876730167705e-02
3.219780133327003568e+01,1.118140968910872127e-02
3.229762866673991084e+01,1.118339818516956782e-02
3.239762433327268809e+01,1.118538708297965763e-02
3.249768066674005240e+01,1.118737471526379257e-02
3.259821666672360152e+01,1.118936939331099424e-02
3.269765200000256300e+01,1.119133979330264213e-02
3.279792299994733185e+01,1.119332430298211264e-02
3.289790066669229418e+01,1.119530056569432649e-02
3.299804400000721216e+01,1.119727766699627099e-02
3.309789433330297470e+01,1.119924656398113214e-02
3.319753766665235162e+01,1.120120897832311765e-02
3.329820533329620957e+01,1.120318913859865741e-02
3.339764400001149625e+01,1.120514273625917469e-02
3.349789366673212498e+01,1.120710987253809889e-02
3.359791266662068665e+01,1.120907009444750517e-02
3.369834733335301280e+01,1.121103607037910940e-02
3.379772066674195230e+01,1.121297891926531162e-02
3.389796466659754515e+01,1.121493642821899672e-02
3.399783533334266394e+01,1.121688429529367308e-02
3.409774966666009277e+01,1.121883067301829469e-02
3.419756466662511230e+01,1.122077278539498034e-02
3.429748533340170979e+01,1.122271462867552826e-02
3.439770833344664425e+01,1.122466001839732448e-02
3.449751033331267536e+01,1.122659492611918948e-02
3.459802633337676525e+01,1.122854135428369600e-02
3.469784733338747174e+01,1.123047202563208675e-02
3.479767666663974524e+01,1.123240057502401627e-02
3.489729466661810875e+01,1.123432277351545452e-02
3.499764099996536970e+01,1.123625674273893982e-02
3.509732100006658584e+01,1.123817560900323281e-02
3.519828666665125638e+01,1.124011693559383816e-02
3.529753500001970679e+01,1.124202300442061521e-02
3.539752766676247120e+01,1.124394113255813149e-02
3.549771166662685573e+01,1.124586068832912449e-02
3.559801100008189678e+01,1.124778021309618195e-02
3.569790466676931828e+01,1.124968936011507513e-02
3.579782566661015153e+01,1.125159643837671600e-02
3.589773800002876669e+01,1.125350108447700781e-02
3.599770500010345131e+01,1.125540451012665109e-02
3.609779266663827002e+01,1.125730797200473476e-02
3.619789700000546873e+01,1.125920949356811612e-02
3.629801366664469242e+01,1.126110899749432209e-02
3.639753600000403821e+01,1.126299499906708267e-02
3.649772900005336851e+01,1.126489147410580753e-02
3.659797500004060566e+01,1.126678671300577333e-02
3.669828533334657550e+01,1.126868093210835892e-02
3.679766899999231100e+01,1.127055545243525053e-02
3.689774800010491163e+01,1.127244088089306498e-02
3.699777200003154576e+01,1.127432306639477091e-02
3.709812133340165019e+01,1.127620916284933703e-02
3.719800966675393283e+01,1.127808440131987562e-02
3.729774633329361677e+01,1.127995461510925522e-02
3.739820300007704645e+01,1.128183613663688578e-02
3.749825566669460386e+01,1.128370790936328825e-02
3.759764866658952087e+01,1.128556519090860057e-02
3.769793333334382623e+01,1.128743696828173743e-02
3.779827533336356282e+01,1.128930764414291972e-02
3.789828800002578646e+01,1.129117002466819598e-02
3.799821533332578838e+01,1.129302867284126891e-02
3.809774166671559215e+01,1.129487773879031196e-02
3.819816033332608640e+01,1.129674124112766548e-02
3.829783833341207355e+01,1.129858887682295976e-02
3.839782066666521132e+01,1.130044003591161583e-02
3.849795900005847216e+01,1.130229196335176892e-02
3.859785666677635163e+01,1.130413733194880754e-02
3.869798499997705221e+01,1.130598485473155446e-02
3.879817566671408713e+01,1.130783142242507665e-02
3.889732566662132740e+01,1.130965674274937369e-02
3.899753733340185136e+01,1.131149952429010355e-02
3.909793799999170005e+01,1.131334357599684225e-02
3.919779600005131215e+01,1.131517541996860179e-02
3.929818166675977409e+01,1.131701483604730801e-02
3.939798100001644343e+01,1.131884141831207904e-02
3.949815466674044728e+01,1.132067276067737736e-02
3.959804033336695284e+01,1.132249675642852185e-02
3.969732733326964080e+01,1.132430776465459185e-02
3.979771400010213256e+01,1.132613675210416941e-02
