Time [s],Voltage [V]
0.000000000000000000e+00,2.360303691237231744e-03
9.733499994035810232e-02,2.369405354144296996e-03
1.976023331517353654e-01,2.377045301022324194e-03
2.973803333006799221e-01,2.384385558996402702e-03
3.975839999038726091e-01,2.391560960357273780e-03
4.975529999937862158e-01,2.398588912856057780e-03
5.976703332271426916e-01,2.405496503745586066e-03
6.973926665959879756e-01,2.412234315290401505e-03
7.975209999131038785e-01,2.418860771449986465e-03
8.976403332781046629e-01,2.425378690854099791e-03
9.977636665571480989e-01,2.431778620924651864e-03
1.097448999877087772e+00,2.438033076565569029e-03
1.197388666565530002e+00,2.444186244124329360e-03
1.297533666598610580e+00,2.450273219047672570e-03
1.397502999869175255e+00,2.456247366622700892e-03
1.497938666609115899e+00,2.462146606583586871e-03
1.597647333284839988e+00,2.467902176261845080e-03
1.697710666572675109e+00,2.473615388468730896e-03
1.797594999894499779e+00,2.479232293924849787e-03
1.897560666548088193e+00,2.484767658497982409e-03
1.997361999819986522e+00,2.490208895234997943e-03
2.097411999828182161e+00,2.495605627826397339e-03
2.197355666547082365e+00,2.500921917996374796e-03
2.297706666635349393e+00,2.506184751257422866e-03
2.397358333226293325e+00,2.511336934633319386e-03
2.497601666604168713e+00,2.516458380597047864e-03
2.597282999893650413e+00,2.521485792898047092e-03
2.697508333250880241e+00,2.526476799131607397e-03
2.797528999857604504e+00,2.531395645579088971e-03
2.897730666561983526e+00,2.536263647313076377e-03
2.997721999883651733e+00,2.541063482677067241e-03
3.097671666531823575e+00,2.545805361201574236e-03
3.197531333309598267e+00,2.550488989402717802e-03
3.297642333200201392e+00,2.555132141690983488e-03
3.397642333176918328e+00,2.559719798774266579e-03
3.497653666534461081e+00,2.564259543998543851e-03
3.597392999916337430e+00,2.568740048547041733e-03
3.697469333186745644e+00,2.573184329149259125e-03
3.797402333235368133e+00,2.577576723124882715e-03
3.897569999913685024e+00,2.581935318733746473e-03
3.997530333232134581e+00,2.586242397942476595e-03
4.097314333193935454e+00,2.590501067268514371e-03
4.197395666502416134e+00,2.594732999391593988e-03
4.297717666602693498e+00,2.598937020912770162e-03
4.397672666586004198e+00,2.603088247474805769e-03
4.497666999930515885e+00,2.607197035040083148e-03
4.597650999901816249e+00,2.611268571095263884e-03
4.697679999982938170e+00,2.615306232246095153e-03
4.797585666528902948e+00,2.619304405936323434e-03
4.897622999851591885e+00,2.623274434868391389e-03
4.997557333204895258e+00,2.627208132487010746e-03
5.097479333169758320e+00,2.631110263421300270e-03
5.197381333215162158e+00,2.634980659117539502e-03
5.297369666513986886e+00,2.638817975107372350e-03
5.397544999956153333e+00,2.642631727721431179e-03
5.497783666476607323e+00,2.646417915988021410e-03
5.597780666546896100e+00,2.650165919210641964e-03
5.697403999976813793e+00,2.653871870289102423e-03
5.797508999938145280e+00,2.657568358312907466e-03
5.897679666639305651e+00,2.661240617152873557e-03
5.997492666589096189e+00,2.664873419792579932e-03
6.097530999919399619e+00,2.668485581489628972e-03
6.197515666484832764e+00,2.672070134152405244e-03
6.297625666600652039e+00,2.675634116678527602e-03
6.397450666525401175e+00,2.679163627169557638e-03
6.497680999920703471e+00,2.682683679600619212e-03
6.597557666595093906e+00,2.686168247035256897e-03
6.697614666540175676e+00,2.689636668447357819e-03
6.797438999870792031e+00,2.693074457189309576e-03
6.897712666541337967e+00,2.696502160094141429e-03
6.997546333237551153e+00,2.699892602691911746e-03
7.097691333270631731e+00,2.703271801381610089e-03
7.197687666630372405e+00,2.706624637932558263e-03
7.297580333193764091e+00,2.709953157696413407e-03
7.397279666620306671e+00,2.713254919317277698e-03
7.497444333159364760e+00,2.716552109264585776e-03
7.597716333228163421e+00,2.719833230373908811e-03
7.697732666507363319e+00,2.723086905830740274e-03
7.797482666559517384e+00,2.726313392665917316e-03
7.897338999900966883e+00,2.729525243958846187e-03
7.997646333184093237e+00,2.732733852350565339e-03
8.097662999876774848e+00,2.735915908589885408e-03
8.197356999851763248e+00,2.739071007490076308e-03
8.297538666520267725e+00,2.742225209710643860e-03
8.397527999826706946e+00,2.745356756138169884e-03
8.497889666585251689e+00,2.748481904813044469e-03
8.597441999940201640e+00,2.751566337422165290e-03
8.697487999917939305e+00,2.754650909748131409e-03
8.797563999891281128e+00,2.757721619026789334e-03
8.897310999920591712e+00,2.760767926183385970e-03
8.997422999818809330e+00,2.763811430315818267e-03
9.097387666581198573e+00,2.766836922038661949e-03
9.197330333292484283e+00,2.769848640387850489e-03
9.297366666491143405e+00,2.772850468616599399e-03
9.397335999878123403e+00,2.775837992059771754e-03
9.497457666555419564e+00,2.778818162249172170e-03
9.597715666517615318e+00,2.781790865516841921e-03
9.697286666603758931e+00,2.784732193943749348e-03
9.797596666612662375e+00,2.787684675947256410e-03
9.897672333172522485e+00,2.790619995062618500e-03
9.997684666537679732e+00,2.793539848395430562e-03
1.009736899985000491e+01,2.796430693134960808e-03
1.019759799982421100e+01,2.799325866640891506e-03
1.029739699990022928e+01,2.802197464854968949e-03
1.039762766659259796e+01,2.805070552018111996e-03
1.049745499982964247e+01,2.807921458099980373e-03
1.059759533323813230e+01,2.810770925545200138e-03
1.069765666662715375e+01,2.813608034359080679e-03
1.079730466648470610e+01,2.816423648171040468e-03
1.089745366666465998e+01,2.819243859306809225e-03
1.099760199990123510e+01,2.822054739990497753e-03
1.109740666649304330e+01,2.824846980847553132e-03
1.119735133321955800e+01,2.827634410587453670e-03
1.129750699992291629e+01,2.830419234014786532e-03
1.139745366654824466e+01,2.833190043019287972e-03
1.149792999983765185e+01,2.835967548607355292e-03
1.159770733327604830e+01,2.838714778997519696e-03
1.169768833322450519e+01,2.841453170907570942e-03
1.179772633325774223e+01,2.844184182667343526e-03
1.189747166656889021e+01,2.846898464601404274e-03
1.199769833323080093e+01,2.849617219723971258e-03
1.209765533322934061e+01,2.852320214381511010e-03
1.219756033318117261e+01,2.855013540441334909e-03
1.229741433332674205e+01,2.857697402346844832e-03
1.239767266658600420e+01,2.860384161312500353e-03
1.249742066650651395e+01,2.863049483216386065e-03
1.259755599987693131e+01,2.865717534079864799e-03
1.269750266650225967e+01,2.868373109200986811e-03
1.279771466657985002e+01,2.871028428698156262e-03
1.289751499996054918e+01,2.873665735028451372e-03
1.299728233320638537e+01,2.876295246655822136e-03
1.309761133324354887e+01,2.878932747624535476e-03
1.319769999990239739e+01,2.881555076022822640e-03
1.329749399994034320e+01,2.884159370755898927e-03
1.339762999990489334e+01,2.886765230818597646e-03
1.349771933315787464e+01,2.889362613741764362e-03
1.359751999995205551e+01,2.891945379919909700e-03
1.369769466656725854e+01,2.894530773942976306e-03
1.379737633327022195e+01,2.897096535801103184e-03
1.389772833324968815e+01,2.899672695409854541e-03
1.399728033319115639e+01,2.902221624347233603e-03
1.409768999996595085e+01,2.904785864438913685e-03
1.419770666665863246e+01,2.907333534741722049e-03
1.429758033331017941e+01,2.909871159986677190e-03
1.439736699988134205e+01,2.912400288873985815e-03
1.449738466658163816e+01,2.914929071662319439e-03
1.459769699990283698e+01,2.917459173880682273e-03
1.469749633327592164e+01,2.919970348489789140e-03
1.479754866659641266e+01,2.922481088440998659e-03
1.489763666654471308e+01,2.924985531952963187e-03
1.499729733320418745e+01,2.927473131327767118e-03
1.509740433318074793e+01,2.929965748720258622e-03
1.519765099987853318e+01,2.932455749467004127e-03
1.529735566664021462e+01,2.934926291244619161e-03
1.539729933324269950e+01,2.937396804431772600e-03
1.549738066655118018e+01,2.939864799766905411e-03
1.559755933319684118e+01,2.942329309372510287e-03
1.569798633328173310e+01,2.944794063551061259e-03
1.579736733320169151e+01,2.947227408891716673e-03
1.589763799984939396e+01,2.949676795736411259e-03
1.599739033321384341e+01,2.952107837812661950e-03
1.609757566661573946e+01,2.954543765462505026e-03
1.619741866656113416e+01,2.956965755679001780e-03
1.629733466659672558e+01,2.959383940796817512e-03
1.639777066651731730e+01,2.961809298091944501e-03
1.649757399992085993e+01,2.964214082188111523e-03
1.659758566657546908e+01,2.966618481301390095e-03
1.669735366664826870e+01,2.969011666893001892e-03
1.679732766654342413e+01,2.971404462150988024e-03
1.689739299996290356e+01,2.973794131172931982e-03
1.699737699993420392e+01,2.976176580505042989e-03
1.709742599993478507e+01,2.978555327636691133e-03
1.719752399984281510e+01,2.980930010998263623e-03
1.729746133321896195e+01,2.983295691531395906e-03
1.739767633320298046e+01,2.985662760985612237e-03
1.749732166656758636e+01,2.988011251126830754e-03
1.759750099992379546e+01,2.990367198155613297e-03
1.769755033322144300e+01,2.992714975716350215e-03
1.779780933330766857e+01,2.995062567116877489e-03
1.789745266665704548e+01,2.997390694938455689e-03
1.799760266649536788e+01,2.999726207526745656e-03
1.809748466662131250e+01,3.002051086477678689e-03
1.819740266655571759e+01,3.004372052282098735e-03
1.829759433318395168e+01,3.006694640061347967e-03
1.839764466660562903e+01,3.009009256119450724e-03
1.849769933323841542e+01,3.011319315450698263e-03
1.859764599998015910e+01,3.013622266546541004e-03
1.869749333325307816e+01,3.015918357612059134e-03
1.879747233330272138e+01,3.018212932173429744e-03
1.889751966658513993e+01,3.020504556233073734e-03
1.899753399984911084e+01,3.022790938972313990e-03
1.909738899988587946e+01,3.025069237288957602e-03
1.919735633325763047e+01,3.027345684171837536e-03
1.929743299994152039e+01,3.029620227634817909e-03
1.939758799981791526e+01,3.031892181303193386e-03
1.949763099988922477e+01,3.034157259775785084e-03
1.959729433327447623e+01,3.036409463912119987e-03
1.969760999991558492e+01,3.038672126299940632e-03
1.979737933317665011e+01,3.040918231921676401e-03
1.989766099990811199e+01,3.043171644547482558e-03
1.999740099988412112e+01,3.045408708868142886e-03
2.009772399999201298e+01,3.047654674160034990e-03
2.019775166653562337e+01,3.049889885068017212e-03
2.029752599983476102e+01,3.052115339648492701e-03
2.039740766654722393e+01,3.054339116426801892e-03
2.049771833315026015e+01,3.056568368733213626e-03
2.059737033327110112e+01,3.058778962630511605e-03
2.069749033323023468e+01,3.060995926038810686e-03
2.079745399998500943e+01,3.063205438385149630e-03
2.089730466657783836e+01,3.065408495807052467e-03
2.099738466658163816e+01,3.067612666213499241e-03
2.109772499988321215e+01,3.069818624678720409e-03
2.119760699989274144e+01,3.072010245812072105e-03
2.129769066651351750e+01,3.074202172117448170e-03
2.139773766661528498e+01,3.076389350681594994e-03
2.149761999992188066e+01,3.078569009354741558e-03
2.159749833331443369e+01,3.080744677718075079e-03
2.169764199992641807e+01,3.082922220300454187e-03
2.179747033328749239e+01,3.085089026117851865e-03
2.189733399997930974e+01,3.087252734350352627e-03
2.199773166654631495e+01,3.089424127271217339e-03
2.209748066647443920e+01,3.091577643123316187e-03
2.219737499987240881e+01,3.093730462494189044e-03
2.229748766659758985e+01,3.095884146539138598e-03
2.239772233332041651e+01,3.098036611540854607e-03
2.249744599987752736e+01,3.100174294164502464e-03
2.259740133327431977e+01,3.102313137134856628e-03
2.269733466650359333e+01,3.104447706708089380e-03
2.279755366651806980e+01,3.106584565129041561e-03
2.289762966660782695e+01,3.108714569159633755e-03
2.299758366658352315e+01,3.110838185067277360e-03
2.309746199985966086e+01,3.112956412015047136e-03
2.319752899988088757e+01,3.115074852448656163e-03
2.329750433331355453e+01,3.117187568334832751e-03
2.339744766661897302e+01,3.119295829108755837e-03
2.349750533315818757e+01,3.121402717791552442e-03
2.359740366658661515e+01,3.123502474596624376e-03
2.369746166653931141e+01,3.125601804052380219e-03
2.379739233315922320e+01,3.127694681590974073e-03
2.389740999997593462e+01,3.129785596526591523e-03
2.399758099985774606e+01,3.131875919424682766e-03
2.409748533321544528e+01,3.133956889200819988e-03
2.419768899993505329e+01,3.136040289711796315e-03
2.429745066654868424e+01,3.138110711028917980e-03
2.439739599986933172e+01,3.140183607367975742e-03
2.449765066662803292e+01,3.142260140341735647e-03
2.459761333325877786e+01,3.144327202364427445e-03
2.469732133322395384e+01,3.146385606868388248e-03
2.479760333325248212e+01,3.148452458077823438e-03
2.489757433324120939e+01,3.150509515436917228e-03
2.499760433332994580e+01,3.152564417871075910e-03
2.509748933324590325e+01,3.154612991522343177e-03
2.519758499995805323e+01,3.156662539935699199e-03
2.529776399990078062e+01,3.158710453264929833e-03
2.539747466659173369e+01,3.160745485144376022e-03
2.549768533324822783e+01,3.162787408775181476e-03
2.559744833316653967e+01,3.164816923033654267e-03
2.569808199990075082e+01,3.166860837650024071e-03
2.579751099983695894e+01,3.168877029070297016e-03
2.589730666659306735e+01,3.170897412180421517e-03
2.599753433314617723e+01,3.172923281220746579e-03
2.609740566660184413e+01,3.174938708524371531e-03
2.619752466655336320e+01,3.176955898381542305e-03
2.629731066664680839e+01,3.178963165576943143e-03
2.639770566648803651e+01,3.180979455498291440e-03
2.649765233322978020e+01,3.182983534859106997e-03
2.659732633316889405e+01,3.184978969859621201e-03
2.669775033323094249e+01,3.186986220087965806e-03
2.679772333323489875e+01,3.188981274772512489e-03
2.689732833323068917e+01,3.190965837788762877e-03
2.699735999992117286e+01,3.192955747881244272e-03
2.709746233315672725e+01,3.194943907799223815e-03
2.719746366655454040e+01,3.196926917375701987e-03
2.729765833320561796e+01,3.198910616541176307e-03
2.739750566647853702e+01,3.200884315627467065e-03
2.749730866658501327e+01,3.202854029662035185e-03
2.759727933316025883e+01,3.204824536321860401e-03
2.769760099984705448e+01,3.206798993584567339e-03
2.779743899998720735e+01,3.208760915032380333e-03
2.789745699998456985e+01,3.210723366476362240e-03
2.799743799981661141e+01,3.212682093870495702e-03
2.809734166658017784e+01,3.214636322197674239e-03
2.819748299987986684e+01,3.216592215912716848e-03
2.829774366656783968e+01,3.218547457634183141e-03
2.839775699982419610e+01,3.220494912106336600e-03
2.849739566654898226e+01,3.222432136903724369e-03
2.859740533330477774e+01,3.224373639089461036e-03
2.869757999991998076e+01,3.226315405103635965e-03
2.879776533320546150e+01,3.228254444710006513e-03
2.889749799994751811e+01,3.230181818545688199e-03
2.899760566651821136e+01,3.232113533724391505e-03
2.909758866659831256e+01,3.234039946180176494e-03
2.919762866664677858e+01,3.235964567546341115e-03
2.929754566657356918e+01,3.237883946036389411e-03
2.939764699991792440e+01,3.239803990962159853e-03
2.949742666655220091e+01,3.241715010625752496e-03
2.959750499995425344e+01,3.243628894756746261e-03
2.969768333318643272e+01,3.245541834749533609e-03
2.979771766660269350e+01,3.247449180828847030e-03
2.989770866651087999e+01,3.249352867821758955e-03
2.999771133321337402e+01,3.251253951498530963e-03
3.009774499991908669e+01,3.253152804738250470e-03
3.019762766652274877e+01,3.255045984856769735e-03
3.029748866660520434e+01,3.256935957366155834e-03
3.039755033317487687e+01,3.258826929342622646e-03
3.049760399991646409e+01,3.260714955897350050e-03
3.059752399986609817e+01,3.262597678039387984e-03
3.069779033330269158e+01,3.264484137505031022e-03
3.079768033325672150e+01,3.266361075747303572e-03
3.089758333319332451e+01,3.268235538455529273e-03
3.099784466659184545e+01,3.270113994865226498e-03
3.109787999989930540e+01,3.271985499428531775e-03
3.119794866652227938e+01,3.273854919307482656e-03
3.129794066655449569e+01,3.275720208783738756e-03
3.139751199982129037e+01,3.277574978150806992e-03
3.149807599990162998e+01,3.279445538557631407e-03
3.159769433329347521e+01,3.281295840889463574e-03
3.169746899988967925e+01,3.283146392285768780e-03
3.179742233315482736e+01,3.284997600508470211e-03
3.189750466658733785e+01,3.286848540264898123e-03
3.199773466656915843e+01,3.288699552514724907e-03
3.209773966658394784e+01,3.290543764706501187e-03
3.219774899992626160e+01,3.292385421305745168e-03
3.229755166650284082e+01,3.294220651170436630e-03
3.239755499991588295e+01,3.296056951134146169e-03
3.249756866658572108e+01,3.297890824134472841e-03
3.259749599988572299e+01,3.299720506754034478e-03
3.269752699998207390e+01,3.301549483247062135e-03
3.279768499988131225e+01,3.303378177140330659e-03
3.289759899990167469e+01,3.305199825043642764e-03
3.299749866663478315e+01,3.307018629998448919e-03
3.309737266658339649e+01,3.308834392781153169e-03
3.319774933322332799e+01,3.310656705812754091e-03
3.329774966661352664e+01,3.312469611578517173e-03
3.339769999985583127e+01,3.314279047899153230e-03
3.349749199987854809e+01,3.316083066737363083e-03
3.359745899995323271e+01,3.317887698433844880e-03
3.369767133332788944e+01,3.319694201531650513e-03
3.379745033325161785e+01,3.321490353904405207e-03
3.389783133321907371e+01,3.323294820060967991e-03
3.399769799993373454e+01,3.325087793006610039e-03
3.409743433329276741e+01,3.326875942572350003e-03
3.419751266657840461e+01,3.328667735432878222e-03
3.429738466662820429e+01,3.330453355382370813e-03
3.439766266650985926e+01,3.332243749066523576e-03
3.449760733323637396e+01,3.334025719553539591e-03
3.459734766650944948e+01,3.335801592717722343e-03
3.469747699983417988e+01,3.337581931920798398e-03
3.479732366662938148e+01,3.339354796565593975e-03
3.489748333324678242e+01,3.341130767888609351e-03
3.499771266651805490e+01,3.342905522921233840e-03
3.509761833318043500e+01,3.344672111877472487e-03
3.519750266661867499e+01,3.346435898942937484e-03
3.529738033330067992e+01,3.348197149595816009e-03
3.539763833314646035e+01,3.349962680076019536e-03
3.549746899993624538e+01,3.351718274540526656e-03
3.559744599985424429e+01,3.353474036784195866e-03
3.569755399983841926e+01,3.355229692744152777e-03
3.579757966659963131e+01,3.356981504467175265e-03
3.589770733320619911e+01,3.358732704684796750e-03
3.599758633330930024e+01,3.360477170633766834e-03
3.609773766656871885e+01,3.362224006097973283e-03
3.619745866663288325e+01,3.363960965702849325e-03
3.629742299986537546e+01,3.365699794967134430e-03
3.639756033325102180e+01,3.367439260421683199e-03
3.649750066653359681e+01,3.369172940396001226e-03
3.659735866659320891e+01,3.370902838533118215e-03
3.669765833322890103e+01,3.372638024224633001e-03
3.679741999984253198e+01,3.374361557088225144e-03
3.689751566667109728e+01,3.376088513843599793e-03
3.699778400000650436e+01,3.377816097512109129e-03
3.709742999984882772e+01,3.379530630604969665e-03
3.719749199983198196e+01,3.381249990371074880e-03
3.729773566650692374e+01,3.382970133507462365e-03
3.739769766654353589e+01,3.384683116958090224e-03
3.749776766647119075e+01,3.386395628249119771e-03
3.759774100000504404e+01,3.388104168432781900e-03
3.769770899997092783e+01,3.389810305786656458e-03
3.779751233325805515e+01,3.391511330669658153e-03
3.789738333318382502e+01,3.393211209982259155e-03
3.799727966659702361e+01,3.394909223614013365e-03
3.809782966657076031e+01,3.396616031968108587e-03
3.819731533317826688e+01,3.398302490129204330e-03
3.829770533333066851e+01,3.400001979470451945e-03
3.839749766665045172e+01,3.401689065669568583e-03
3.849733533326070756e+01,3.403374641529729322e-03
3.859761899989098310e+01,3.405065457999087962e-03
3.869773166649974883e+01,3.406751106023129042e-03
3.879737266665324569e+01,3.408426548190419264e-03
3.889757766656111926e+01,3.410109198904464657e-03
3.899751433322671801e+01,3.411785074465085218e-03
3.909774033329449594e+01,3.413463528799031733e-03
3.919778266653884202e+01,3.415136639968123673e-03
3.929738799994811416e+01,3.416800195041084631e-03
3.939745766657870263e+01,3.418469249374193105e-03
3.949740366660989821e+01,3.420133986871656991e-03
3.959771366661880165e+01,3.421802524731257407e-03
3.969776466651819646e+01,3.423464499042291193e-03
3.979750199988484383e+01,3.425119023485159037e-03
