Time [s],Voltage [V]
0.000000000000000000e+00,6.051310462704574157e-03
9.730299992952495813e-02,6.062767025496107985e-03
1.975096666719764471e-01,6.070794927997652697e-03
2.974976666737347841e-01,6.078488414628974330e-03
3.975926666753366590e-01,6.085891027661464656e-03
4.981179999886080623e-01,6.093243974751290891e-03
5.983443332370370626e-01,6.100387747219989526e-03
6.981253332924097776e-01,6.107380537552446059e-03
7.977116666734218597e-01,6.114247973935256833e-03
8.979169999947771430e-01,6.121078657276756742e-03
9.980239999713376164e-01,6.127796550700420619e-03
1.098214333294890821e+00,6.134432290569436994e-03
1.197686666622757912e+00,6.140931845829737494e-03
1.297745999880135059e+00,6.147367747080043597e-03
1.397623999975621700e+00,6.153697893139311280e-03
1.497419333318248391e+00,6.159928910206965633e-03
1.598242666572332382e+00,6.166144336410462126e-03
1.697982333367690444e+00,6.172220886986065289e-03
1.797763666603714228e+00,6.178219289445394287e-03
1.897425333270803094e+00,6.184129939756617157e-03
1.997444666572846472e+00,6.189980858339060726e-03
2.097590666613541543e+00,6.195757943645730653e-03
2.197388999979011714e+00,6.201434101653397965e-03
2.297643666621297598e+00,6.207071023300575648e-03
2.397852333262562752e+00,6.212655181804323419e-03
2.497761999955400825e+00,6.218152174601022236e-03
2.597458333242684603e+00,6.223567256688442365e-03
2.697646999964490533e+00,6.228938461948434202e-03
2.797659666626714170e+00,6.234229625885297568e-03
2.897669333266094327e+00,6.239450090550468717e-03
2.997709000017493963e+00,6.244647213559199710e-03
3.097777333226986229e+00,6.249789596499357239e-03
3.197866333299316466e+00,6.254875232272919666e-03
3.297796333325095475e+00,6.259895111588111710e-03
3.398150000022724271e+00,6.264878274696910818e-03
3.497887333272956312e+00,6.269773246139164792e-03
3.598105333279818296e+00,6.274650110445150961e-03
3.698253333335742354e+00,6.279487106395101326e-03
3.797810000018216670e+00,6.284246950222878957e-03
3.898206666577607393e+00,6.288997892155877983e-03
3.997475999989546835e+00,6.293647044759107315e-03
4.097747666644863784e+00,6.298294239872539654e-03
4.197871666634455323e+00,6.302887480713881101e-03
4.297917666612192988e+00,6.307454502612546733e-03
4.398148000007495284e+00,6.311988329513042867e-03
4.497495666611939669e+00,6.316441130358372430e-03
4.597556999884545803e+00,6.320884558398223198e-03
4.697906666668131948e+00,6.325299103250198694e-03
4.798212999943643808e+00,6.329670021625355067e-03
4.897492666612379253e+00,6.333963108321121784e-03
4.997676666593179107e+00,6.338263103384369004e-03
5.097320999950170517e+00,6.342505013430609941e-03
5.197829666663892567e+00,6.346749231968481370e-03
5.297791666584089398e+00,6.350936804584282613e-03
5.397348333266563714e+00,6.355074915020532920e-03
5.497571666608564556e+00,6.359208783486884620e-03
5.597657666658051312e+00,6.363305786004041890e-03
5.697604333283379674e+00,6.367366760374695671e-03
5.797414333326742053e+00,6.371392727618601683e-03
5.897451999946497381e+00,6.375399132453801743e-03
5.997495666611939669e+00,6.379377787001040169e-03
6.097936333389952779e+00,6.383344868455479403e-03
6.198172333301045001e+00,6.387277310710289327e-03
6.297782999929040670e+00,6.391159733860988894e-03
6.398124999948777258e+00,6.395045772795573437e-03
6.497670999960973859e+00,6.398877085155990629e-03
6.597696666605770588e+00,6.402703670282863975e-03
6.697817666572518647e+00,6.406511415088470690e-03
6.798201666562817991e+00,6.410307371195552231e-03
6.897414333303458989e+00,6.414038375860197511e-03
6.997499333345331252e+00,6.417782163444122299e-03
7.097631333279423416e+00,6.421508374966691628e-03
7.197808666620403528e+00,6.425217714757893925e-03
7.297826333320699632e+00,6.428903415087458897e-03
7.397693666629493237e+00,6.432566690337088514e-03
7.497843333287164569e+00,6.436209567143975040e-03
7.597849000012502074e+00,6.439826060178178470e-03
7.697320999926887453e+00,6.443404786465034388e-03
7.797531333286315203e+00,6.446991965563668089e-03
7.897775333374738693e+00,6.450562679491980873e-03
7.997380666667595506e+00,6.454093650784572221e-03
8.097474333364516497e+00,6.457625383155378776e-03
8.197970999986864626e+00,6.461155162424269890e-03
8.297832666663452983e+00,6.464647101348561936e-03
8.397956666653044522e+00,6.468133179928740352e-03
8.497810333268716931e+00,6.471595366581163987e-03
8.597374666598625481e+00,6.475033633466201199e-03
8.697741333278827369e+00,6.478486086884004645e-03
8.797848999965935946e+00,6.481916624537980252e-03
8.897657666588202119e+00,6.485324497446778858e-03
8.997900999966077507e+00,6.488734222400025821e-03
9.097490666666999459e+00,6.492095706771593318e-03
9.197971666697412729e+00,6.495473329337721896e-03
9.298132999916560948e+00,6.498826592696533427e-03
9.397612333297729492e+00,6.502143894980104075e-03
9.497429999872110784e+00,6.505459653627182655e-03
9.597547333221882582e+00,6.508772787740054952e-03
9.697622000006958842e+00,6.512072247817107806e-03
9.797712999978102744e+00,6.515360311848756442e-03
9.897893333341926336e+00,6.518639687505814115e-03
9.997796666692011058e+00,6.521898742662547710e-03
1.009760666661895812e+01,6.525143857275966970e-03
1.019797233329154551e+01,6.528396385024905733e-03
1.029810366663150489e+01,6.531631002015736084e-03
1.039797099994029850e+01,6.534847153834687054e-03
1.049770033336244524e+01,6.538049283380443881e-03
1.059801499987952411e+01,6.541258481941620608e-03
1.069761899998411536e+01,6.544428718385880868e-03
1.079824366664979607e+01,6.547620989958723159e-03
1.089806166663765907e+01,6.550777517761911285e-03
1.099812566663604230e+01,6.553931901581352797e-03
1.109790966659784317e+01,6.557067789712590217e-03
1.119808100000955164e+01,6.560206364621489102e-03
1.129814633331261575e+01,6.563332355202321396e-03
1.139804999995976686e+01,6.566444285051575500e-03
1.149849299993366003e+01,6.569564165962630750e-03
1.159742733335588127e+01,6.572628734116608279e-03
1.169747766666114330e+01,6.575719565118650495e-03
1.179789066663943231e+01,6.578813428319444344e-03
1.189801033330149949e+01,6.581890329902324172e-03
1.199809600005391985e+01,6.584958505087332332e-03
1.209805666666943580e+01,6.588015408199962564e-03
1.219813466665800661e+01,6.591064805993392464e-03
1.229797499999403954e+01,6.594094698617895302e-03
1.239823233324568719e+01,6.597128859896884447e-03
1.249777899996843189e+01,6.600133331540455894e-03
1.259794599993620068e+01,6.603148429550321184e-03
1.269748266658280045e+01,6.606136641252807230e-03
1.279744699993170798e+01,6.609129885957508790e-03
1.289775733335409313e+01,6.612125761245370506e-03
1.299814233335200697e+01,6.615116249274414356e-03
1.309770966670475900e+01,6.618074984341543870e-03
1.319735166663303971e+01,6.621028697661936191e-03
1.329749266663566232e+01,6.623990038189600527e-03
1.339774299995042384e+01,6.626947551271026443e-03
1.349775666662026197e+01,6.629891176496811693e-03
1.359782966668717563e+01,6.632829777690326008e-03
1.369764033332467079e+01,6.635754062665148029e-03
1.379826266656164080e+01,6.638693094484878453e-03
1.389779766660649329e+01,6.641592317626092944e-03
1.399778500001411885e+01,6.644497791073294621e-03
1.409782899997662753e+01,6.647398056780940735e-03
1.419791500002611428e+01,6.650292772016226477e-03
1.429815333324950188e+01,6.653185201037829441e-03
1.439744099997915328e+01,6.656043687352088817e-03
1.449773366667795926e+01,6.658924621565530041e-03
1.459791266662068665e+01,6.661795875816825183e-03
1.469795899989549071e+01,6.664657021910629607e-03
1.479747200000565499e+01,6.667496756022467906e-03
1.489777799998410046e+01,6.670352995225847965e-03
1.499794733326416463e+01,6.673199299650873877e-03
1.509738299995660782e+01,6.676018875821549542e-03
1.519759966665878892e+01,6.678854761487404076e-03
1.529780900001060218e+01,6.681684673839423730e-03
1.539800366666167974e+01,6.684505372566980179e-03
1.549803633335977793e+01,6.687314926397409931e-03
1.559743566659744829e+01,6.690100592259290262e-03
1.569760666659567505e+01,6.692901785809088171e-03
1.579740099993068725e+01,6.695686411992330181e-03
1.589743633323814720e+01,6.698471771622489974e-03
1.599774133332539350e+01,6.701258670611187976e-03
1.609832033328711987e+01,6.704047234844227703e-03
1.619724866666365415e+01,6.706784276866939454e-03
1.629768333327956498e+01,6.709557207190814526e-03
1.639781633333768696e+01,6.712316057447015316e-03
1.649808200006373227e+01,6.715072862658902526e-03
1.659759299992583692e+01,6.717803331548507888e-03
1.669747033331077546e+01,6.720538308884941789e-03
1.679775766667444259e+01,6.723278979161638122e-03
1.689779533329419792e+01,6.726007355140142981e-03
1.699760000000242144e+01,6.728723984189427694e-03
1.709787333325948566e+01,6.731447999736395876e-03
1.719778599997516721e+01,6.734156916907350215e-03
1.729811999993398786e+01,6.736871986830057085e-03
1.739793266658671200e+01,6.739567761848592152e-03
1.749797833326738328e+01,6.742264691134106092e-03
1.759791299991775304e+01,6.744953545385568017e-03
1.769742566661443561e+01,6.747626050282850424e-03
1.779753433330915868e+01,6.750309585297526935e-03
1.789760933327488601e+01,6.752987282894297623e-03
1.799759099993389100e+01,6.755657609384373673e-03
1.809749433328397572e+01,6.758321031226921516e-03
1.819783266657032073e+01,6.760991261739417515e-03
1.829795233334880322e+01,6.763650943519845110e-03
1.839767099998425692e+01,6.766295329920976251e-03
1.849736233334988356e+01,6.768933894832616406e-03
1.859768699994310737e+01,6.771583247428206685e-03
1.869814499991480261e+01,6.774231385415564397e-03
1.879769133334048092e+01,6.776850862921721987e-03
1.889770666661206633e+01,6.779478088075199284e-03
1.899724133324343711e+01,6.782088161448506826e-03
1.909758366667665541e+01,6.784714890744513588e-03
1.919815299997571856e+01,6.787343052165235174e-03
1.929761133319698274e+01,6.789937785344798971e-03
1.939729133329819888e+01,6.792533962524387355e-03
1.949788666667882353e+01,6.795149622408644917e-03
1.959781499998643994e+01,6.797743651754460485e-03
1.969772399996872991e+01,6.800332953660013884e-03
1.979806766659021378e+01,6.802929314399886428e-03
1.989747033338062465e+01,6.805497216689266986e-03
1.999749733333010226e+01,6.808077164073954128e-03
2.009803500003181398e+01,6.810666201771627126e-03
2.019769166654441506e+01,6.813228560390753932e-03
2.029779966664500535e+01,6.815798568852069264e-03
2.039763833337929100e+01,6.818357761282458664e-03
2.049798733321949840e+01,6.820926155475063972e-03
2.059758900001179427e+01,6.823471621719210192e-03
2.069785266660619527e+01,6.826030228867747962e-03
2.079807299992535263e+01,6.828583989185990979e-03
2.089809099992271513e+01,6.831128911285492059e-03
2.099750399996992201e+01,6.833654839763086096e-03
2.109743399999570101e+01,6.836190333657034095e-03
2.119789099995978177e+01,6.838735637138331977e-03
2.129794700001366436e+01,6.841267277042463457e-03
2.139763400005176663e+01,6.843786149507687620e-03
2.149750366667285562e+01,6.846306249618125568e-03
2.159809499990660697e+01,6.848841178981154160e-03
2.169725699990522116e+01,6.851332511602822514e-03
2.179761966667138040e+01,6.853848380451502825e-03
2.189771699986886233e+01,6.856353770418919559e-03
2.199778366659302264e+01,6.858854600423152335e-03
2.209747400006745011e+01,6.861342282905503152e-03
2.219751600001472980e+01,6.863835014037055794e-03
2.229790799994952977e+01,6.866332741449591125e-03
2.239731666666921228e+01,6.868802355342348669e-03
2.249758099997416139e+01,6.871289577388752304e-03
2.259760600002482533e+01,6.873767238912225318e-03
2.269774966663680971e+01,6.876244242630441886e-03
2.279803033324424177e+01,6.878721056658031532e-03
2.289731466653756797e+01,6.881169762812789845e-03
2.299726066668517888e+01,6.883631299082332115e-03
2.309761099994648248e+01,6.886099300075249063e-03
2.319815699988976121e+01,6.888568631118398289e-03
2.329801300005055964e+01,6.891017594902096484e-03
2.339736166666261852e+01,6.893450760599825061e-03
2.349730666668619961e+01,6.895895181853066436e-03
2.359757466660812497e+01,6.898344155566830081e-03
2.369791666662786156e+01,6.900791608689009655e-03
2.379786066664382815e+01,6.903226073036727861e-03
2.389814066654071212e+01,6.905665459055473389e-03
2.399750133336056024e+01,6.908079286208727854e-03
2.409804566658567637e+01,6.910518659525176702e-03
2.419745199999306351e+01,6.912927277335064770e-03
2.429775899997912347e+01,6.915354576170827487e-03
2.439744366670493037e+01,6.917763716450098417e-03
2.449767833331134170e+01,6.920183062365347151e-03
2.459775966661982238e+01,6.922595647678801353e-03
2.469775866670534015e+01,6.925003223026688151e-03
2.479755199991632253e+01,6.927402410693484468e-03
2.489750233327504247e+01,6.929798317412687314e-03
2.499767366668675095e+01,6.932196152334845103e-03
2.509747666667681187e+01,6.934581831112658287e-03
2.519737633329350501e+01,6.936966497971582511e-03
2.529755799996200949e+01,6.939354573386310662e-03
2.539767700002994388e+01,6.941737845854191284e-03
2.549804366659373045e+01,6.944123708952180778e-03
2.559741666668560356e+01,6.946482706324614599e-03
2.569773966667708009e+01,6.948860995816607405e-03
2.579791799990925938e+01,6.951232603006557778e-03
2.589783533324953169e+01,6.953594808928239938e-03
2.599792533332947642e+01,6.955957885788828163e-03
2.609790366666857153e+01,6.958315133012425366e-03
2.619758533325511962e+01,6.960662223533859230e-03
2.629793666664045304e+01,6.963021908120597611e-03
2.639790766662918031e+01,6.965369498455485989e-03
2.649756799999158829e+01,6.967706678372600874e-03
2.659782399993855506e+01,6.970054704685440909e-03
2.669756133330520242e+01,6.972387491050647222e-03
2.679742966662161052e+01,6.974720266014436398e-03
2.689782633329741657e+01,6.977062295591494878e-03
2.699740099988412112e+01,6.979382108300864924e-03
2.709798566659446806e+01,6.981722391485814354e-03
2.719730466662440449e+01,6.984030224498297135e-03
2.729818033333867788e+01,6.986371190978268690e-03
2.739771333336830139e+01,6.988678013311776932e-03
2.749796933331526816e+01,6.990998609611309353e-03
2.759742166660726070e+01,6.993297661357321220e-03
2.769759866665117443e+01,6.995610518057663804e-03
2.779806100006680936e+01,6.997927007306014441e-03
2.789811566669959575e+01,7.000231170518103965e-03
2.799834233324509114e+01,7.002535502350865602e-03
2.809813233336899430e+01,7.004825977265016421e-03
2.819781133334618062e+01,7.007110886739102706e-03
2.829785266669932753e+01,7.009401079754148771e-03
2.839801233331672847e+01,7.011690959127907415e-03
2.849786599993240088e+01,7.013970842467267403e-03
2.859743466658983380e+01,7.016241246119979749e-03
2.869780366669874638e+01,7.018526905544476835e-03
2.879797399998642504e+01,7.020805054417578704e-03
2.889761099999304861e+01,7.023068124489943893e-03
2.899734033329878002e+01,7.025330356474709763e-03
2.909768699994310737e+01,7.027603638315841478e-03
2.919803199998568743e+01,7.029873930251550121e-03
2.929770633322186768e+01,7.032126136189041470e-03
2.939796700002625585e+01,7.034388672957941901e-03
2.949758966662921011e+01,7.036633924130341299e-03
2.959798999992199242e+01,7.038893799705957764e-03
2.969764833338558674e+01,7.041134102822572613e-03
2.979815766669344157e+01,7.043390649578849111e-03
2.989773166668601334e+01,7.045623348740847822e-03
2.999798200000077486e+01,7.047868359433356010e-03
3.009812799992505461e+01,7.050108185324129549e-03
3.019792433327529579e+01,7.052337369075538896e-03
3.029797433328349143e+01,7.054569401973099022e-03
3.039815299992915243e+01,7.056801489600919401e-03
3.049805133335758001e+01,7.059024535755019890e-03
3.059817299991846085e+01,7.061249761341151059e-03
3.069743900001049042e+01,7.063453221960241772e-03
3.079789033334236592e+01,7.065680219443310275e-03
3.089792933326680213e+01,7.067895311993594408e-03
3.099811366666108370e+01,7.070110869110161553e-03
3.109820866666268557e+01,7.072321709269410901e-03
3.119756166660226882e+01,7.074512856332888962e-03
3.129741733334958553e+01,7.076712280943132233e-03
3.139779166667722166e+01,7.078920348733419576e-03
3.149740600003860891e+01,7.081108949615646554e-03
3.159740199998486787e+01,7.083303190957147659e-03
3.169734966673422605e+01,7.085493631862165020e-03
3.179752333334181458e+01,7.087686285759490015e-03
3.189782933332026005e+01,7.089879096238409922e-03
3.199755566660314798e+01,7.092056524864591253e-03
3.209770499996375293e+01,7.094240478769861351e-03
3.219780600001104176e+01,7.096420672865227063e-03
3.229797099996358156e+01,7.098599561629713797e-03
3.239851900003850460e+01,7.100784074746115289e-03
3.249785200005862862e+01,7.102939535838658121e-03
3.259775866661220789e+01,7.105104791930118811e-03
3.269744299992453307e+01,7.107262585879038468e-03
3.279768499999772757e+01,7.109429796895499684e-03
3.289787933335173875e+01,7.111593326028885567e-03
3.299773799988906831e+01,7.113746978060796200e-03
3.309787366655655205e+01,7.115903977180716364e-03
3.319788966665510088e+01,7.118055781166050117e-03
3.329772199993021786e+01,7.120201033419988612e-03
3.339795633323956281e+01,7.122352319027436610e-03
3.349795099999755621e+01,7.124495868328983156e-03
3.359776333335321397e+01,7.126632935192318483e-03
3.369759633322246373e+01,7.128767880696966139e-03
3.379784166661556810e+01,7.130909072491427303e-03
3.389779433328658342e+01,7.133041455979915839e-03
3.399768766656052321e+01,7.135170031031689078e-03
3.409751133329700679e+01,7.137294590816908174e-03
3.419755299994722009e+01,7.139421260590043429e-03
3.429759166669100523e+01,7.141545133076326879e-03
3.439802899991627783e+01,7.143674462483790011e-03
3.449803999997675419e+01,7.145792179704424721e-03
3.459781900001689792e+01,7.147902431632638734e-03
3.469750233332160860e+01,7.150008120694318486e-03
3.479753999994136393e+01,7.152118749242404941e-03
3.489796733332332224e+01,7.154235040913368288e-03
3.499768166663125157e+01,7.156333778242749723e-03
3.509759399993345141e+01,7.158434161634138343e-03
3.519781499996315688e+01,7.160538504925476576e-03
3.529809366655535996e+01,7.162641530589023212e-03
3.539762099995277822e+01,7.164726305129309573e-03
3.549827733333222568e+01,7.166832207810950456e-03
3.559757933323271573e+01,7.168907297995988533e-03
3.569767199992202222e+01,7.170996426895184794e-03
3.579762366670183837e+01,7.173080131154834470e-03
3.589755933324340731e+01,7.175161029057400795e-03
3.599783233331982046e+01,7.177246472501963744e-03
3.609807266667485237e+01,7.179328761653738789e-03
3.619798199995420873e+01,7.181401719266955475e-03
3.629806866671424359e+01,7.183475904682120813e-03
3.639800566656049341e+01,7.185544546719060954e-03
3.649728899996262044e+01,7.187597248703457564e-03
3.659732699999585748e+01,7.189663131036420213e-03
3.669772466667927802e+01,7.191734002602374019e-03
3.679818866669666022e+01,7.193803804015528117e-03
3.689745999989099801e+01,7.195846644184506619e-03
3.699760199990123510e+01,7.197905001295514145e-03
3.709740099997725338e+01,7.199953916731754999e-03
3.719747666665352881e+01,7.202006121456388729e-03
3.729763466655276716e+01,7.204057624072932910e-03
3.739770333329215646e+01,7.206104915228028415e-03
3.749766199989244342e+01,7.208147585775981359e-03
3.759726366668473929e+01,7.210180611341441073e-03
3.769794066669419408e+01,7.212233209204770013e-03
3.779795633326284587e+01,7.214269964226110998e-03
3.789744266658090055e+01,7.216293613036679939e-03
3.799780999997165054e+01,7.218332837405074150e-03
3.809792933333665133e+01,7.220364683135694663e-03
3.819765266671311110e+01,7.222386175762544186e-03
3.829805766663048416e+01,7.224419157302330169e-03
3.839771166665013880e+01,7.226434628340623785e-03
3.849742566666100174e+01,7.228449021557691034e-03
3.859779266663827002e+01,7.230474298517803114e-03
3.869801799987908453e+01,7.232494412824024867e-03
3.879812399996444583e+01,7.234509830215495388e-03
3.889755966665688902e+01,7.236509491051873119e-03
3.899796333338599652e+01,7.238526338784976102e-03
3.909781299997121096e+01,7.240529792859177506e-03
3.919797666661906987e+01,7.242537284192938560e-03
3.929741599992848933e+01,7.244528022773682324e-03
3.939782766671851277e+01,7.246535973446277708e-03
3.949758266669232398e+01,7.248528556712329624e-03
3.959746233338955790e+01,7.250521403947927414e-03
3.969730300002265722e+01,7.252511253261284888e-03
3.979752699995879084e+01,7.254506516941921536e-03
