Time [s],Voltage [V]
0.000000000000000000e+00,1.607885950237012427e-04
9.780300001148134470e-02,1.837910720212797711e-04
1.977963333483785391e-01,2.057090788186592733e-04
2.975803333101794124e-01,2.270061451769789197e-04
3.975750000681728125e-01,2.479495801387120472e-04
4.977973332861438394e-01,2.686845204485425976e-04
5.975753333186730742e-01,2.890790871955251345e-04
6.975753332953900099e-01,3.092975287538300439e-04
7.975753333885222673e-01,3.292936433460626547e-04
8.977996667381376028e-01,3.491292608178815041e-04
9.975753333419561386e-01,3.686967457015812759e-04
1.097680666716769338e+00,3.881371250554943760e-04
1.197576333303004503e+00,4.073453159871115144e-04
1.298066999996080995e+00,4.264916129419426237e-04
1.397602666635066271e+00,4.452962989463753315e-04
1.497626666678115726e+00,4.640180831592469191e-04
1.597872999962419271e+00,4.826053078705385161e-04
1.697914333315566182e+00,5.009946241657578644e-04
1.797574999975040555e+00,5.191697607845437504e-04
1.897652333369478583e+00,5.372611889842620822e-04
1.997701000072993338e+00,5.551874745633330298e-04
2.097918999963440001e+00,5.729952443126812766e-04
2.197576000005938113e+00,5.905665864978349409e-04
2.297873333329334855e+00,6.081021454299446842e-04
2.397755333338864148e+00,6.254168526855534080e-04
2.497575333341956139e+00,6.425784271671587276e-04
2.597575333318673074e+00,6.596362599380401794e-04
2.697659666649997234e+00,6.765707379385953570e-04
2.797970333369448781e+00,6.934072259037885651e-04
2.897957999957725406e+00,7.100556912631291124e-04
2.998070666682906449e+00,7.265930989877185083e-04
3.097787666600197554e+00,7.429359343070759481e-04
3.197589666699059308e+00,7.591655346815018865e-04
3.297809333307668567e+00,7.753370044538843847e-04
3.397951333317905664e+00,7.913717484096942671e-04
3.497788999928161502e+00,8.072361488166962919e-04
3.597590333316475153e+00,8.229753717382768665e-04
3.697822666727006435e+00,8.386643802489517161e-04
3.797575333388522267e+00,8.541626776959250922e-04
3.897575333365239203e+00,8.695855847090482992e-04
3.997575333341956139e+00,8.848964984402126399e-04
4.097578999935649335e+00,9.000936173886478313e-04
4.197792333317920566e+00,9.152053193074106887e-04
4.297651999979279935e+00,9.301534594656790146e-04
4.397831000038422644e+00,9.450403571603404381e-04
4.497785000014118850e+00,9.597864849790190911e-04
4.597788333310745656e+00,9.744341142053997368e-04
4.697693333378992975e+00,9.889632066538318889e-04
4.797709666658192873e+00,1.003405748698367808e-03
4.897917666705325246e+00,1.017770975219603946e-03
4.997639666660688818e+00,1.031959919548148391e-03
5.097980999969877303e+00,1.046134952282182576e-03
5.197690333356149495e+00,1.060120466019812049e-03
5.297693333355709910e+00,1.074047956852045363e-03
5.397972333244979382e+00,1.087915270934545911e-03
5.497594666667282581e+00,1.101595138332397972e-03
5.597968333284370601e+00,1.115281919885244884e-03
5.697630999959073961e+00,1.128774095714865644e-03
5.797710999962873757e+00,1.142222100141460257e-03
5.897929999977350235e+00,1.155592628731094522e-03
5.997628999990411103e+00,1.168799101450923713e-03
6.097797666676342487e+00,1.181973480186799836e-03
6.197793333325535059e+00,1.195031615754904575e-03
6.297923999954946339e+00,1.208014579031798730e-03
6.397622333373874426e+00,1.220850013234370084e-03
6.497643333277665079e+00,1.233635728690933185e-03
6.597675666678696871e+00,1.246331824546206097e-03
6.697834333288483322e+00,1.258953920294585268e-03
6.797966999933123589e+00,1.271483442362846775e-03
6.897924000048078597e+00,1.283902689349167119e-03
6.997575333341956139e+00,1.296196897438583844e-03
7.097587333410046995e+00,1.308448955463147869e-03
7.198034333297982812e+00,1.320667694916146306e-03
7.297673666616901755e+00,1.332703188258620251e-03
7.397681333357468247e+00,1.344698802282669843e-03
7.497698666644282639e+00,1.356611792738593707e-03
7.597892666584812105e+00,1.368462575465548888e-03
7.698149666655808687e+00,1.380238168137639873e-03
7.797714666696265340e+00,1.391851421057312002e-03
7.897761999978683889e+00,1.403440319074828781e-03
7.997981333290226758e+00,1.414968881349170683e-03
8.097761333337984979e+00,1.426364475408004907e-03
8.197970000095665455e+00,1.437722942339359974e-03
8.297575333388522267e+00,1.448933606269071309e-03
8.397578999982215464e+00,1.460110062849884725e-03
8.497614333289675415e+00,1.471211436248483131e-03
8.597630000091157854e+00,1.482232629504964426e-03
8.697971333283931017e+00,1.493211955715718735e-03
8.797649666666984558e+00,1.504042238336459215e-03
8.897801000042818487e+00,1.514847739524459403e-03
8.997926333337090909e+00,1.525574726045460325e-03
9.097684999927878380e+00,1.536187756923012822e-03
9.198006333317607641e+00,1.546786097087983133e-03
9.297870666719973087e+00,1.557262520340894517e-03
9.397979333298280835e+00,1.567691451099336667e-03
9.497732999967411160e+00,1.578011185394539171e-03
9.597767666680738330e+00,1.588288212050922160e-03
9.697906000073999166e+00,1.598500798676992908e-03
9.797611666726879776e+00,1.608590146152439129e-03
9.897739666746929288e+00,1.618650023004202399e-03
9.997574999928474426e+00,1.628608939012352605e-03
1.009757500002160668e+01,1.638513139486268968e-03
1.019757866673171520e+01,1.648346986317504419e-03
1.029785966675262898e+01,1.658137582243079554e-03
1.039766633335966617e+01,1.667812235451726329e-03
1.049770866672042757e+01,1.677440506404466848e-03
1.059773333335760981e+01,1.686998275136662034e-03
1.069757533329539001e+01,1.696470468109210084e-03
1.079789866670034826e+01,1.705920264053089165e-03
1.089791566669009626e+01,1.715273780673025588e-03
1.099794566666241735e+01,1.724561666730535254e-03
1.109767899999860674e+01,1.733755938806511281e-03
1.119805166672449559e+01,1.742943034208758275e-03
1.129794566659256816e+01,1.752018404513762699e-03
1.139790866663679481e+01,1.761028589666141855e-03
1.149789233331102878e+01,1.769974678664356597e-03
1.159793166664894670e+01,1.778860122209983616e-03
1.169798266666475683e+01,1.787681340882373709e-03
1.179783266666345298e+01,1.796420163189418103e-03
1.189795933337882161e+01,1.805118715599434397e-03
1.199772366660181433e+01,1.813721960340069529e-03
1.209760966664180160e+01,1.822272259408846181e-03
1.219774366659112275e+01,1.830780469203683019e-03
1.229762966674752533e+01,1.839204839386575103e-03
1.239790366671513766e+01,1.847599274232044741e-03
1.249772033328190446e+01,1.855893465452356297e-03
1.259790933341719210e+01,1.864156828370068780e-03
1.269757533329539001e+01,1.872316049444418132e-03
1.279768100008368492e+01,1.880450408933297037e-03
1.289758033328689635e+01,1.888517248104832399e-03
1.299792299990076572e+01,1.896588251398391520e-03
1.309802366665098816e+01,1.904586668448477339e-03
1.319758633326273412e+01,1.912490245548277221e-03
1.329763499996624887e+01,1.920381092636892599e-03
1.339769666676875204e+01,1.928222303057483024e-03
1.349797733337618411e+01,1.936030630987693561e-03
1.359800366673152894e+01,1.943770032315179658e-03
1.369758266664575785e+01,1.951426867705728912e-03
1.379758200002834201e+01,1.959068653732562015e-03
1.389761900005396456e+01,1.966666604357846480e-03
1.399769266671501100e+01,1.974221375885361427e-03
1.409793800010811538e+01,1.981743803260484389e-03
1.419757533329539001e+01,1.989176455051359926e-03
1.429778733337298036e+01,1.996608361238711663e-03
1.439801699994131923e+01,2.003998613349688637e-03
1.449782300007063895e+01,2.011320426035838153e-03
1.459757633332628757e+01,2.018612793144132760e-03
1.469757866673171520e+01,2.025886541436410643e-03
1.479763033334165812e+01,2.033127972142137214e-03
1.489792200003284961e+01,2.040351723809110882e-03
1.499775666673667729e+01,2.047508695371662996e-03
1.509767400007694960e+01,2.054638751920649133e-03
1.519802066660486162e+01,2.061767372504181954e-03
1.529798399994615465e+01,2.068837794096715053e-03
1.539768133335746825e+01,2.075859601190411900e-03
1.549777333333622664e+01,2.082880255519351832e-03
1.559759700007271022e+01,2.089854183548440700e-03
1.569774933333974332e+01,2.096824058335482015e-03
1.579799600003752857e+01,2.103774394697631878e-03
1.589757833338808268e+01,2.110653798510573730e-03
1.599763466662261635e+01,2.117541967337835396e-03
1.609789800003636628e+01,2.124418400798419940e-03
1.619762266671750695e+01,2.131225347235990442e-03
1.629761300003156066e+01,2.138027041319257287e-03
1.639777499996125698e+01,2.144817788007602130e-03
1.649796133337076753e+01,2.151588387121615431e-03
1.659758066665381193e+01,2.158299900016534198e-03
1.669758366665337235e+01,2.165017280932552378e-03
1.679767400003038347e+01,2.171721334767690720e-03
1.689757533336523920e+01,2.178394432101880048e-03
1.699757733335718513e+01,2.185056796730586778e-03
1.709757533331867307e+01,2.191702280958256026e-03
1.719795866671483964e+01,2.198357520321517385e-03
1.729774500010535121e+01,2.204958288349529068e-03
1.739774599997326732e+01,2.211559212217670614e-03
1.749802166665904224e+01,2.218165004023706522e-03
1.759757733333390206e+01,2.224711073072124616e-03
1.769757833331823349e+01,2.231267180301566531e-03
1.779789433337282389e+01,2.237799792834380130e-03
1.789791066665202379e+01,2.244295775410080646e-03
1.799765000003390014e+01,2.250757175198733924e-03
1.809770899999421090e+01,2.257223063571252904e-03
1.819804766669403762e+01,2.263691140929327203e-03
1.829783766670152545e+01,2.270108502980231098e-03
1.839779366669245064e+01,2.276521625321722454e-03
1.849782633327413350e+01,2.282925150513153475e-03
1.859758100006729364e+01,2.289296845427832468e-03
1.869757833331823349e+01,2.295670402193625281e-03
1.879762099997606128e+01,2.302033613104427674e-03
1.889772599993739277e+01,2.308387967679390897e-03
1.899760833336040378e+01,2.314715834041373901e-03
1.909778366668615490e+01,2.321050298019985709e-03
1.919792733329813927e+01,2.327371213188005397e-03
1.929768066667020321e+01,2.333651797428760999e-03
1.939789533335715532e+01,2.339927137839991050e-03
1.949769366660621017e+01,2.346159976085913923e-03
1.959785866667516530e+01,2.352399048308202734e-03
1.969758933328557760e+01,2.358594278461995965e-03
1.979782600002363324e+01,2.364803836351420802e-03
1.989757533336523920e+01,2.370965933905747492e-03
1.999759133334737271e+01,2.377126935884524197e-03
2.009777533332817256e+01,2.383280353637144081e-03
2.019757533329539001e+01,2.389392022405464368e-03
2.029757533327210695e+01,2.395497413992467382e-03
2.039761366671882570e+01,2.401586225743156632e-03
2.049790299998130649e+01,2.407670927582828031e-03
2.059796533337794244e+01,2.413722096899504569e-03
2.069803066668100655e+01,2.419753271096568986e-03
2.079772233334369957e+01,2.425741401439006090e-03
2.089799566660076380e+01,2.431748750003435294e-03
2.099757499992847443e+01,2.437724292728312998e-03
2.109764400008134544e+01,2.443714882318763666e-03
2.119768866663798690e+01,2.449689789898651382e-03
2.129795699997339398e+01,2.455663926468445654e-03
2.139795899996533990e+01,2.461608248017518961e-03
2.149757533334195614e+01,2.467515938011678300e-03
2.159770399995613843e+01,2.473440367123625697e-03
2.169773999997414649e+01,2.479345794445006294e-03
2.179774766671471298e+01,2.485236184000360997e-03
2.189810166670940816e+01,2.491133682140401866e-03
2.199757533334195614e+01,2.496966447852310995e-03
2.209757533343508840e+01,2.502817173397777536e-03
2.219768966664560139e+01,2.508661771253200331e-03
2.229774333327077329e+01,2.514490156636686562e-03
2.239757533336523920e+01,2.520293145716961773e-03
2.249769466673023999e+01,2.526098983030402798e-03
2.259775266668293625e+01,2.531878796944457902e-03
2.269779766665305942e+01,2.537643672187782883e-03
2.279788399999961257e+01,2.543396753612381118e-03
2.289759233337827027e+01,2.549114028761724233e-03
2.299761233339086175e+01,2.554835077125331387e-03
2.309792033338453621e+01,2.560558438099084892e-03
2.319764366676099598e+01,2.566234401879248332e-03
2.329824866668786854e+01,2.571946385218164960e-03
2.339757899998221546e+01,2.577572062040622836e-03
2.349757500004488975e+01,2.583221473210575020e-03
2.359782033343799412e+01,2.588870925372368202e-03
2.369789800001308322e+01,2.594496920848763082e-03
2.379757499997504056e+01,2.600086500286933125e-03
2.389770033338572830e+01,2.605687282993327750e-03
2.399757833324838430e+01,2.611260332940976668e-03
2.409766366658732295e+01,2.616831139107866737e-03
2.419762766663916409e+01,2.622382100061783003e-03
2.429757533327210695e+01,2.627918469174402808e-03
2.439770933333784342e+01,2.633451466917621515e-03
2.449786133342422545e+01,2.638971779194034320e-03
2.459795466659124941e+01,2.644475217658977077e-03
2.469796999997925013e+01,2.649960776424158289e-03
2.479757533327210695e+01,2.655410374419356172e-03
2.489757533324882388e+01,2.660868068668248432e-03
2.499776766670402139e+01,2.666322726583718154e-03
2.509775633341632783e+01,2.671752820604571602e-03
2.519802033330779523e+01,2.677184378603540867e-03
2.529788199998438358e+01,2.682580744346589954e-03
2.539786366675980389e+01,2.687970229761361442e-03
2.549784933333285153e+01,2.693346586123723015e-03
2.559758133336436003e+01,2.698696037265844051e-03
2.569778466667048633e+01,2.704057474667611368e-03
2.579788966663181782e+01,2.709400553015506048e-03
2.589757533336523920e+01,2.714708111206695900e-03
2.599758133327122778e+01,2.720019582154565175e-03
2.609775433328468353e+01,2.725326757338135484e-03
2.619758033333346248e+01,2.730602471764449497e-03
2.629758300003595650e+01,2.735874465556428596e-03
2.639772300003096461e+01,2.741140635019858728e-03
2.649784066667780280e+01,2.746392592535556489e-03
2.659761033335234970e+01,2.751613357888579858e-03
2.669777966674882919e+01,2.756842076472650060e-03
2.679786466667428613e+01,2.762053454261354218e-03
2.689807066670618951e+01,2.767258207306111384e-03
2.699780533334705979e+01,2.772425668450448442e-03
2.709797833336051553e+01,2.777603007221267871e-03
2.719776566664222628e+01,2.782747657151346272e-03
2.729761799995321780e+01,2.787883208762427165e-03
2.739792100002523512e+01,2.793033264129199736e-03
2.749782099993899465e+01,2.798150718747176476e-03
2.759784566669259220e+01,2.803262729762013780e-03
2.769766199996229261e+01,2.808352370103275788e-03
2.779782800003886223e+01,2.813448144643922351e-03
2.789786766667384654e+01,2.818525875829606432e-03
2.799795566662214696e+01,2.823594520245525930e-03
2.809763566672336310e+01,2.828631107249047604e-03
2.819786666671279818e+01,2.833684145523306021e-03
2.829790699994191527e+01,2.838716260626624691e-03
2.839802466670516878e+01,2.843741029849437482e-03
2.849785699998028576e+01,2.848740363439218604e-03
2.859757533331867307e+01,2.853722984703760748e-03
2.869757533329539001e+01,2.858708713034826231e-03
2.879797733330633491e+01,2.863703512983459959e-03
2.889798533334396780e+01,2.868668015639987134e-03
2.899757766665425152e+01,2.873604351813918364e-03
2.909800799994263798e+01,2.878571425877421777e-03
2.919768199999816716e+01,2.883490372281716577e-03
2.929778233333490789e+01,2.888419609283883038e-03
2.939798366662580520e+01,2.893343031498733352e-03
2.949757633334957063e+01,2.898225851052996238e-03
2.959757666673976928e+01,2.903117929041646329e-03
2.969789800001308322e+01,2.908014908208892638e-03
2.979785900004208088e+01,2.912883537024020530e-03
2.989757966669276357e+01,2.917729756982426811e-03
2.999760499992407858e+01,2.922580043577351506e-03
3.009762833325657994e+01,2.927419477618706852e-03
3.019796533335465938e+01,2.932263281725433837e-03
3.029793066659476608e+01,2.937078380490622601e-03
3.039758200000505894e+01,2.941867662202171489e-03
3.049774999998044223e+01,2.946670951467008671e-03
3.059833033336326480e+01,2.951479741719004266e-03
3.069757600000593811e+01,2.956213658546574547e-03
3.079792066675145179e+01,2.960988824818124726e-03
3.089777299994602799e+01,2.965729411388964842e-03
3.099783633323386312e+01,2.970468856849459854e-03
3.109762966667767614e+01,2.975184388734065412e-03
3.119775399996433407e+01,2.979904395847898964e-03
3.129789266665466130e+01,2.984613892309239194e-03
3.139786566665861756e+01,2.989304438060897372e-03
3.149763899995014071e+01,2.993974499056577688e-03
3.159791300003416836e+01,2.998656805161353540e-03
3.169793466664850712e+01,3.003316153427262446e-03
3.179777200007811189e+01,3.007955784604179894e-03
3.189779766660649329e+01,3.012593016554101881e-03
3.199757533334195614e+01,3.017207630666482628e-03
3.209757533331867307e+01,3.021821383676305192e-03
3.219782366661820561e+01,3.026438052887779010e-03
3.229757533327210695e+01,3.031021048040761969e-03
3.239757566666230559e+01,3.035604638351889050e-03
3.249757533334195614e+01,3.040177355156403662e-03
3.259757533331867307e+01,3.044739244222919097e-03
3.269757533341180533e+01,3.049290290294909278e-03
3.279757499997504056e+01,3.053830478268950051e-03
3.289757600007578731e+01,3.058359883631133619e-03
3.299787500000093132e+01,3.062891894758986398e-03
3.309768766665365547e+01,3.067391102181935263e-03
3.319792733329813927e+01,3.071898685465049295e-03
3.329769566666800529e+01,3.076374255499221815e-03
3.339769633335527033e+01,3.080849417364774773e-03
3.349757533334195614e+01,3.085308311128155505e-03
3.359757500002160668e+01,3.089761755444863679e-03
3.369757499999832362e+01,3.094204371605238906e-03
3.379757833341136575e+01,3.098643802441274769e-03
3.389758066658396274e+01,3.103073474355657647e-03
3.399768266663886607e+01,3.107497613868522284e-03
3.409789733332581818e+01,3.111916763824187221e-03
3.419776266661938280e+01,3.116310586741282904e-03
3.429799066670238972e+01,3.120710406883487470e-03
3.439775866665877402e+01,3.125080125184279307e-03
3.449764666671399027e+01,3.129445195635176258e-03
3.459765833336859941e+01,3.133805742143726605e-03
3.469768700003623962e+01,3.138157093098520138e-03
3.479799099999945611e+01,3.142510442649099935e-03
3.489774533337913454e+01,3.146830025394385145e-03
3.499757533334195614e+01,3.151142990239163676e-03
3.509757533331867307e+01,3.155453376120497498e-03
3.519786766660399735e+01,3.159766387184980742e-03
3.529757533327210695e+01,3.164044352109748881e-03
3.539766866667196155e+01,3.168328932794416131e-03
3.549783400003798306e+01,3.172606634292069946e-03
3.559797699993941933e+01,3.176873420542823418e-03
3.569759366661310196e+01,3.181107899387621962e-03
3.579765533329918981e+01,3.185351372107659250e-03
3.589790466672275215e+01,3.189592831332534704e-03
3.599757666664663702e+01,3.193799968637119936e-03
3.609766933333594352e+01,3.198014932775205058e-03
3.619769933342467993e+01,3.202217316990803656e-03
3.629785400000400841e+01,3.206414982130235958e-03
3.639792466664221138e+01,3.210599176534500304e-03
3.649795300001278520e+01,3.214771661224343456e-03
3.659770266665145755e+01,3.218922625818052691e-03
3.669791266671381891e+01,3.223082795864263324e-03
3.679757499997504056e+01,3.227210337712672818e-03
3.689757533324882388e+01,3.231341962732861735e-03
3.699757566663902253e+01,3.235475212505059366e-03
3.709776333335321397e+01,3.239607957574149565e-03
3.719785833323840052e+01,3.243727686872329048e-03
3.729800499998964369e+01,3.247840346575110292e-03
3.739771399996243417e+01,3.251925894599421579e-03
3.749772999994456768e+01,3.256014861413425616e-03
3.759781833330634981e+01,3.260097600980104218e-03
3.769768066669348627e+01,3.264161965028926794e-03
3.779833533323835582e+01,3.268249321261777144e-03
3.789812466665171087e+01,3.272292365744999820e-03
3.799757833336479962e+01,3.276312723478524459e-03
3.809784466668497771e+01,3.280356749653998497e-03
3.819775266665965319e+01,3.284377152100226294e-03
3.829792966670356691e+01,3.288399187681369587e-03
3.839757533324882388e+01,3.292390759624636704e-03
3.849768599995877594e+01,3.296391787842819273e-03
3.859785200003534555e+01,3.300385828002739587e-03
3.869788466673344374e+01,3.304365367909282113e-03
3.879788566660135984e+01,3.308334474841324261e-03
3.889794566656928509e+01,3.312296743631623457e-03
3.899757533334195614e+01,3.316232848252513056e-03
3.909757533331867307e+01,3.320174429189440453e-03
3.919766933342907578e+01,3.324110530697021396e-03
3.929799533332698047e+01,3.328046534559662897e-03
3.939769433334004134e+01,3.331948794772107009e-03
3.949776099994778633e+01,3.335856278669190912e-03
3.959774866665247828e+01,3.339751504769522799e-03
3.969757533329539001e+01,3.343631311609703005e-03
3.979757533327210695e+01,3.347508691482283666e-03
