Time [s],Voltage [V]
0.000000000000000000e+00,1.510442818447867500e-03
9.767366666346788406e-02,1.520176820474776046e-03
1.976270000450313091e-01,1.528660989545865215e-03
2.973826666129752994e-01,1.536870715160562574e-03
3.975409999256953597e-01,1.544915759585058050e-03
4.976256666705012321e-01,1.552823392573460118e-03
5.973990000784397125e-01,1.560574219068043989e-03
6.973220000509172678e-01,1.568193148670082165e-03
7.973269999492913485e-01,1.575678265250051585e-03
8.977576666511595249e-01,1.583084765031101413e-03
9.975006666500121355e-01,1.590322316712782218e-03
1.097442333353683352e+00,1.597455528562549427e-03
1.197603999986313283e+00,1.604485176197122326e-03
1.297491000033915043e+00,1.611415162581672023e-03
1.397713000071235001e+00,1.618265846669151263e-03
1.497727999929338694e+00,1.624999155973530767e-03
1.597752999980002642e+00,1.631630004499450091e-03
1.697752666659653187e+00,1.638194898208052575e-03
1.797525666654109955e+00,1.644658936577294249e-03
1.897775999968871474e+00,1.651066596562977048e-03
1.997678333311341703e+00,1.657364956786430395e-03
2.097514000022783875e+00,1.663600185490878621e-03
2.197374666575342417e+00,1.669762280899952369e-03
2.297561333281919360e+00,1.675868804837807790e-03
2.397525999927893281e+00,1.681886238059528745e-03
2.497575000044889748e+00,1.687846438940572916e-03
2.597544333315454423e+00,1.693735788276357198e-03
2.697675999952480197e+00,1.699570019348642554e-03
2.797909666667692363e+00,1.705347206190058369e-03
2.897933000000193715e+00,1.711051819317457520e-03
2.997470333357341588e+00,1.716670434482741019e-03
3.097683666739612818e+00,1.722270375544914531e-03
3.197405333281494677e+00,1.727788136000106859e-03
3.297547666588798165e+00,1.733276166064417600e-03
3.397344333352521062e+00,1.738694311732671190e-03
3.497475333278998733e+00,1.744081411344120631e-03
3.597499333322048187e+00,1.749415463964131261e-03
3.697733666631393135e+00,1.754708352560729531e-03
3.797832666663452983e+00,1.759947577941901788e-03
3.897674666717648506e+00,1.765128768240922623e-03
3.997776333359070122e+00,1.770280278305626101e-03
4.097792333341203630e+00,1.775385768177574920e-03
4.197418333264067769e+00,1.780431532658350007e-03
4.297345666680485010e+00,1.785454175603131983e-03
4.397707000025548041e+00,1.790461491528454793e-03
4.497646666597574949e+00,1.795402633508466368e-03
4.597545000026002526e+00,1.800304139439547549e-03
4.697824000031687319e+00,1.805187935507593031e-03
4.797367666731588542e+00,1.810001004544340266e-03
4.897582666715607047e+00,1.814812544664804643e-03
4.997355333296582103e+00,1.819570114354410011e-03
5.097695333417505026e+00,1.824322951880123517e-03
5.197578999912366271e+00,1.829023665063995562e-03
5.297335333307273686e+00,1.833681084418349681e-03
5.397612333297729492e+00,1.838331314196176361e-03
5.497441666666418314e+00,1.842930466945325073e-03
5.597454333328641951e+00,1.847508552162323552e-03
5.697731333319097757e+00,1.852069902074050247e-03
5.797605333267711103e+00,1.856585040200510461e-03
5.897277333308011293e+00,1.861064120453305697e-03
5.997427333379164338e+00,1.865538407549036321e-03
6.097402333281934261e+00,1.869975199845413071e-03
6.197544333292171359e+00,1.874393045521405895e-03
6.297338666627183557e+00,1.878770088412007625e-03
6.397749333293177187e+00,1.883149157175121853e-03
6.497691666707396507e+00,1.887483539527025616e-03
6.597525333287194371e+00,1.891789688175115041e-03
6.697549666627310216e+00,1.896081130545559804e-03
6.797358999960124493e+00,1.900341113724361361e-03
6.897570666624233127e+00,1.904591883934936064e-03
6.997557333321310580e+00,1.908810210353467868e-03
7.097500333329662681e+00,1.913004445359208112e-03
7.197394000017084181e+00,1.917174835117862672e-03
7.297768333228304982e+00,1.921343821644917521e-03
7.397621999960392714e+00,1.925470282090558684e-03
7.497702333377674222e+00,1.929585647077913108e-03
7.597701666643843055e+00,1.933677674599868120e-03
7.697582999942824244e+00,1.937745363469359694e-03
7.797505333321169019e+00,1.941795664506770205e-03
7.897345999954268336e+00,1.945824069354050792e-03
7.997679333435371518e+00,1.949854092580269836e-03
8.097812333377078176e+00,1.953858275252652859e-03
8.197741666692309082e+00,1.957837046129016004e-03
8.297564333304762840e+00,1.961794800228640941e-03
8.397595666698180139e+00,1.965744467657711339e-03
8.497304666670970619e+00,1.969662546362654400e-03
8.597334666759707034e+00,1.973577046497004828e-03
8.697617000085301697e+00,1.977485664707616386e-03
8.797486666706390679e+00,1.981362929085888919e-03
8.897319333394989371e+00,1.985223935409276448e-03
8.997413666686043143e+00,1.989080593870675134e-03
9.097336333361454308e+00,1.992916597485252204e-03
9.197537666652351618e+00,1.996749622676976307e-03
9.297283999971114099e+00,2.000552048510900651e-03
9.397452333359979093e+00,2.004357723738626768e-03
9.497333000064827502e+00,2.008140069094009866e-03
9.597779999952763319e+00,2.011931785053901883e-03
9.697314666700549424e+00,2.015677523872600255e-03
9.797409333288669586e+00,2.019433163589456383e-03
9.897501999977976084e+00,2.023177933790162083e-03
9.997754666721448302e+00,2.026918281602365941e-03
1.009747233334928751e+01,2.030616085702242023e-03
1.019747933326289058e+01,2.034312193427329635e-03
1.029752699995879084e+01,2.037998109213776977e-03
1.039809300005435944e+01,2.041691603236943462e-03
1.049776733329053968e+01,2.045341221502576697e-03
1.059773100004531443e+01,2.048990574724803004e-03
1.069763199996668845e+01,2.052627042166471714e-03
1.079734733328223228e+01,2.056246451859142406e-03
1.089736466668546200e+01,2.059866753641947934e-03
1.099764333339408040e+01,2.063486658938993440e-03
1.109771200001705438e+01,2.067089414218293165e-03
1.119741300004534423e+01,2.070669692174651605e-03
1.129754733329173177e+01,2.074256515217153679e-03
1.139740066661033779e+01,2.077824542065401497e-03
1.149738766672089696e+01,2.081388876391549164e-03
1.159766099997796118e+01,2.084955175669339199e-03
1.169733166659716517e+01,2.088482826976014589e-03
1.179759266658220440e+01,2.092021503910408524e-03
1.189756566670257598e+01,2.095540718683337571e-03
1.199744433327578008e+01,2.099047504350942672e-03
1.209747499995864928e+01,2.102550664468615452e-03
1.219771366671193391e+01,2.106052275110152291e-03
1.229760666668880731e+01,2.109533176030624346e-03
1.239744766661897302e+01,2.113003814106749912e-03
1.249776733329053968e+01,2.116482745266029270e-03
1.259740600001532584e+01,2.119929941187804773e-03
1.269773266674019396e+01,2.123392927569411458e-03
1.279776800004765391e+01,2.126838016126531786e-03
1.289740399993024766e+01,2.130261730330205647e-03
1.299743700004182756e+01,2.133691596511817432e-03
1.309779000002890825e+01,2.137125057415344750e-03
1.319766833330504596e+01,2.140535104266911345e-03
1.329767933336552233e+01,2.143937288959853714e-03
1.339741099998354912e+01,2.147321884624805045e-03
1.349760633334517479e+01,2.150714428312907028e-03
1.359776533336844295e+01,2.154098042908599540e-03
1.369736700004432350e+01,2.157455297557078766e-03
1.379754966660402715e+01,2.160824661228626532e-03
1.389744400000199676e+01,2.164176965423796756e-03
1.399772333330474794e+01,2.167534898008366059e-03
1.409763066668529063e+01,2.170873210874042000e-03
1.419775699998717755e+01,2.174211770469353794e-03
1.429767899995204061e+01,2.177536561787347426e-03
1.439746100001502782e+01,2.180849862958197417e-03
1.449736400006804615e+01,2.184160444163215416e-03
1.459738433337770402e+01,2.187468261666872769e-03
1.469782433332875371e+01,2.190783363243303892e-03
1.479739800002425909e+01,2.194063448945716976e-03
1.489759900001809001e+01,2.197355895658021935e-03
1.499770499998703599e+01,2.200638396938361507e-03
1.509770566667430103e+01,2.203910786610713528e-03
1.519772566668689251e+01,2.207177207157862316e-03
1.529755466675851494e+01,2.210430858917299471e-03
1.539739900000859052e+01,2.213678534471508891e-03
1.549741066666319966e+01,2.216925209026532860e-03
1.559730100003071129e+01,2.220161554144633401e-03
1.569781300006434321e+01,2.223411639842526842e-03
1.579737599997315556e+01,2.226624752649231098e-03
1.589750533329788595e+01,2.229849873605313417e-03
1.599761233327444643e+01,2.233068030830482643e-03
1.609759433334693313e+01,2.236275975779218519e-03
1.619746199995279312e+01,2.239474109106703685e-03
1.629767966666258872e+01,2.242677313297646718e-03
1.639763266663067043e+01,2.245865966927058921e-03
1.649752600002102554e+01,2.249047014943035203e-03
1.659734066668897867e+01,2.252219648351779999e-03
1.669771999993827194e+01,2.255404290634525910e-03
1.679738200001884252e+01,2.258560316289821759e-03
1.689730733330361545e+01,2.261718852720388893e-03
1.699747766659129411e+01,2.264879306891720394e-03
1.709769399999640882e+01,2.268035404408835255e-03
1.719748133327811956e+01,2.271172247348148161e-03
1.729764166660606861e+01,2.274315078192921599e-03
1.739759533328469843e+01,2.277445718875048368e-03
1.749765699997078627e+01,2.280574057047438010e-03
1.759768233331851661e+01,2.283695596209647707e-03
1.769757133326493204e+01,2.286807250792146241e-03
1.779773800005204976e+01,2.289921924527084547e-03
1.789730866672471166e+01,2.293012495088345409e-03
1.799742800008971244e+01,2.296114511821529744e-03
1.809772100008558482e+01,2.299217342768458683e-03
1.819776066660415381e+01,2.302307070840378667e-03
1.829755933338310570e+01,2.305384095895190392e-03
1.839791966660413891e+01,2.308473176330480721e-03
1.849797766667325050e+01,2.311547733069481587e-03
1.859743966674432158e+01,2.314598846697290581e-03
1.869799833325669169e+01,2.317678437079062279e-03
1.879771733342204243e+01,2.320727217968959148e-03
1.889765633328352123e+01,2.323777667624503385e-03
1.899774266674648970e+01,2.326827572539333713e-03
1.909752300009131432e+01,2.329863162129163119e-03
1.919763100007548928e+01,2.332903743994419344e-03
1.929735333332791924e+01,2.335927687039336675e-03
1.939778266672510654e+01,2.338968131518660842e-03
1.949778066668659449e+01,2.341990624515705166e-03
1.959761666657868773e+01,2.345003379469572102e-03
1.969737466669175774e+01,2.348008977264169281e-03
1.979745533340610564e+01,2.351019500011627787e-03
1.989754800009541214e+01,2.354025606203905691e-03
1.999767866660840809e+01,2.357028100362105940e-03
2.009753233334049582e+01,2.360017580577075842e-03
2.019727733323816210e+01,2.362999139713651848e-03
2.029775799997150898e+01,2.365997998058928364e-03
2.039745399996172637e+01,2.368968809479786962e-03
2.049754666665103287e+01,2.371946827744799563e-03
2.059761033335234970e+01,2.374919386748137497e-03
2.069766599999275059e+01,2.377887136397548173e-03
2.079729800007771701e+01,2.380837799971698057e-03
2.089745200006291270e+01,2.383799399698587843e-03
2.099751599994488060e+01,2.386753831105968907e-03
2.109747499995864928e+01,2.389700685873114624e-03
2.119759966665878892e+01,2.392647960244292851e-03
2.129739699990022928e+01,2.395580659835231177e-03
2.139729266660287976e+01,2.398511738062847690e-03
2.149758333340287209e+01,2.401449912650912254e-03
2.159767166664823890e+01,2.404377684786983271e-03
2.169754899991676211e+01,2.407294841918078149e-03
2.179773033328820020e+01,2.410216432302616195e-03
2.189749766676686704e+01,2.413121536141561111e-03
2.199736833339557052e+01,2.416025249432368887e-03
2.209749566670507193e+01,2.418932017171999873e-03
2.219764200004283339e+01,2.421834931570701534e-03
2.229781600006390363e+01,2.424734250184002425e-03
2.239764333330094814e+01,2.427619168437156801e-03
2.249751633335836232e+01,2.430501052197820561e-03
2.259748633333947510e+01,2.433381380778472207e-03
2.269734533329028636e+01,2.436254168962379788e-03
2.279763166664633900e+01,2.439134889252233835e-03
2.289760366664268076e+01,2.442002235413279123e-03
2.299761866673361510e+01,2.444866478809263905e-03
2.309769199998117983e+01,2.447728056133809116e-03
2.319747133331838995e+01,2.450576911304844837e-03
2.329738233331590891e+01,2.453425211155551341e-03
2.339738033339381218e+01,2.456271670359020786e-03
2.349749999993946403e+01,2.459117263740135447e-03
2.359762733336538076e+01,2.461958743743578211e-03
2.369743733329232782e+01,2.464786907632929812e-03
2.379766300006303936e+01,2.467622518563721955e-03
2.389763100002892315e+01,2.470446515130219137e-03
2.399767966673243791e+01,2.473268464716764023e-03
2.409737233328633010e+01,2.476076066315553541e-03
2.419771766674239188e+01,2.478897704332748246e-03
2.429736866662278771e+01,2.481695501177797521e-03
2.439756133337505162e+01,2.484504164378551795e-03
2.449733566667418927e+01,2.487299700072906870e-03
2.459737733332440257e+01,2.490098955817323344e-03
2.469745333329774439e+01,2.492895205907142211e-03
2.479764466674532741e+01,2.495690718149551172e-03
2.489757533336523920e+01,2.498475023292954372e-03
2.499799333338160068e+01,2.501268962072882365e-03
2.509784499998204410e+01,2.504043235646045279e-03
2.519781899999361485e+01,2.506817016495160866e-03
2.529814266669563949e+01,2.509596596790634061e-03
2.539736833330243826e+01,2.512341922800881248e-03
2.549759533326141536e+01,2.515111095337095853e-03
2.559772033337503672e+01,2.517873590120124540e-03
2.569732533337082714e+01,2.520617921648839448e-03
2.579773066670168191e+01,2.523380463125916504e-03
2.589762133336625993e+01,2.526125028455812951e-03
2.599740833335090429e+01,2.528862956341294994e-03
2.609730133332777768e+01,2.531600010012350060e-03
2.619744466664269567e+01,2.534340134349733972e-03
2.629738033341709524e+01,2.537070805330090151e-03
2.639746466663200408e+01,2.539801772844584721e-03
2.649768933339510113e+01,2.542532803016802484e-03
2.659757066669408232e+01,2.545250737361767768e-03
2.669741033331956714e+01,2.547963815657269902e-03
2.679758533334825188e+01,2.550682275347069226e-03
2.689766000001691282e+01,2.553394289508091608e-03
2.699754100001882762e+01,2.556097353910378664e-03
2.709763166669290513e+01,2.558802391518074683e-03
2.719758666667621583e+01,2.561500073571846506e-03
2.729729000001680106e+01,2.564187298799341062e-03
2.739756599999964237e+01,2.566886274957132577e-03
2.749751466664019972e+01,2.569572772248108344e-03
2.759733466664329171e+01,2.572252163080110746e-03
2.769780033337883651e+01,2.574945818143852070e-03
2.779747933335602283e+01,2.577614866488655773e-03
2.789760833326727152e+01,2.580292403388615135e-03
2.799736933328676969e+01,2.582956560788618634e-03
2.809776633337605745e+01,2.585634146940495211e-03
2.819731033337302506e+01,2.588285471803196403e-03
2.829747799993492663e+01,2.590949888083388889e-03
2.839763133332598954e+01,2.593610402985293238e-03
2.849733766668941826e+01,2.596255556920847984e-03
2.859751466661691666e+01,2.598909703413923404e-03
2.869765366672072560e+01,2.601559352373734174e-03
2.879749666666612029e+01,2.604197703912449965e-03
2.889751833328045905e+01,2.606837316360122864e-03
2.899751966667827219e+01,2.609472938822684357e-03
2.909768666664604098e+01,2.612109474860233212e-03
2.919764666666742414e+01,2.614737126248520109e-03
2.929733400000259280e+01,2.617354200060731557e-03
2.939771666668821126e+01,2.619986095802290943e-03
2.949760499992407858e+01,2.622601620065413090e-03
2.959757366671692580e+01,2.625215849587514243e-03
2.969732366665266454e+01,2.627820980420148174e-03
2.979752199992071837e+01,2.630434428577450509e-03
2.989773699990473688e+01,2.633044919190764051e-03
2.999750566668808460e+01,2.635640421029936901e-03
3.009763600002042949e+01,2.638241966161354417e-03
3.019749033334665000e+01,2.640832990022463390e-03
3.029740499996114522e+01,2.643422237861208467e-03
3.039758666662964970e+01,2.646015056027681452e-03
3.049766799993813038e+01,2.648601936115949941e-03
3.059762066672556102e+01,2.651182164052837478e-03
3.069732700008898973e+01,2.653752727664077972e-03
3.079764500004239380e+01,2.656335735707316369e-03
3.089773000008426607e+01,2.658909722196923023e-03
3.099750800000037998e+01,2.661472581276100834e-03
3.109747100004460663e+01,2.664036940460417276e-03
3.119766233325935900e+01,2.666603899059063337e-03
3.129752666666172445e+01,2.669159241681322032e-03
3.139764400001149625e+01,2.671717820707916660e-03
3.149764800001867115e+01,2.674270274977992926e-03
3.159750300005543977e+01,2.676815714282687608e-03
3.169733200001064688e+01,2.679357289814957022e-03
3.179741466674022377e+01,2.681902117982652625e-03
3.189764066657517105e+01,2.684447381391727623e-03
3.199737833335530013e+01,2.686977062305356302e-03
3.209793333336710930e+01,2.689524268026858081e-03
3.219780600001104176e+01,2.692051010207357955e-03
3.229742499999701977e+01,2.694568185265552081e-03
3.239769899996463209e+01,2.697098740998854494e-03
3.249731833336409181e+01,2.699609632616010307e-03
3.259771233331412077e+01,2.702136887051191563e-03
3.269739633332937956e+01,2.704643133525948609e-03
3.279742266656830907e+01,2.707154853289840506e-03
3.289771233324427158e+01,2.709670040278970224e-03
3.299774999998044223e+01,2.712175775860204037e-03
3.309777366661000997e+01,2.714678039869442699e-03
3.319740200007800013e+01,2.717167317539116896e-03
3.329743566666729748e+01,2.719663619288055501e-03
3.339761633332818747e+01,2.722160478432818047e-03
3.349765066662803292e+01,2.724650589579104189e-03
3.359778466669376940e+01,2.727140083926624624e-03
3.369770199991762638e+01,2.729621107668256039e-03
3.379743066662922502e+01,2.732094380029646222e-03
3.389744700002484024e+01,2.734571714635552868e-03
3.399759033333975822e+01,2.737049117805606061e-03
3.409735433338209987e+01,2.739514356049814817e-03
3.419766000006347895e+01,2.741989967209505427e-03
3.429753466660622507e+01,2.744451922451327311e-03
3.439752366673201323e+01,2.746913685243438513e-03
3.449769600003492087e+01,2.749376947272545550e-03
3.459744499996304512e+01,2.751826807528749350e-03
3.469751199998427182e+01,2.754281484286531800e-03
3.479755599994678050e+01,2.756732605593252214e-03
3.489740666665602475e+01,2.759176013964408959e-03
3.499753566668368876e+01,2.761623253585626832e-03
3.509743266669102013e+01,2.764061855330349898e-03
3.519750033330637962e+01,2.766501657369564368e-03
3.529754666669759899e+01,2.768937977628062666e-03
3.539750333328265697e+01,2.771369162719428732e-03
3.549748566676862538e+01,2.773798026342604809e-03
3.559730266674887389e+01,2.776219940297719804e-03
3.569766266667284071e+01,2.778652080162488571e-03
3.579764333332423121e+01,2.781072092248402378e-03
3.589768633327912539e+01,2.783490686382607444e-03
3.599766433332115412e+01,2.785904789678828042e-03
3.609746000007726252e+01,2.788311585052767431e-03
3.619751666660886258e+01,2.790721766246212661e-03
3.629760666657239199e+01,2.793129841511678146e-03
3.639767500001471490e+01,2.795534492187275004e-03
3.649767733330372721e+01,2.797934661770098974e-03
3.659751933335792273e+01,2.800328100922061005e-03
3.669740599999204278e+01,2.802719733832867693e-03
3.679739033337682486e+01,2.805110828172498877e-03
3.689774833328556269e+01,2.807507968802847725e-03
3.699770299997180700e+01,2.809892602371098780e-03
3.709733699995558709e+01,2.812266736824889195e-03
3.719751466671004891e+01,2.814650962966464519e-03
3.729738166672177613e+01,2.817024942175408442e-03
3.739768666669260710e+01,2.819406470302271081e-03
3.749774299992714077e+01,2.821779240183345389e-03
3.759756833338178694e+01,2.824143695568724459e-03
3.769766466668806970e+01,2.826511729311856867e-03
3.779773333331104368e+01,2.828876269505397299e-03
3.789763899997342378e+01,2.831234130541542167e-03
3.799764066666830331e+01,2.833591431923332925e-03
3.809754533332306892e+01,2.835943628136184183e-03
3.819773999997414649e+01,2.838299826606719561e-03
3.829740333335939795e+01,2.840640726707154701e-03
3.839774033334106207e+01,2.842994629340945406e-03
3.849751133332028985e+01,2.845332451131996673e-03
3.859743633342441171e+01,2.847671084019292795e-03
3.869776366662699729e+01,2.850016320150642463e-03
3.879751933331135660e+01,2.852345402077445177e-03
3.889770966663490981e+01,2.854681834736400633e-03
3.899732633330859244e+01,2.857002113027103714e-03
3.909766366670373827e+01,2.859336381821619109e-03
3.919783833331894130e+01,2.861664070992597959e-03
3.929749066673684865e+01,2.863976855004637685e-03
3.939768433338031173e+01,2.866299422316922856e-03
3.949801433330867440e+01,2.868622359539639739e-03
3.959759966668207198e+01,2.870925297205497058e-03
3.969757366669364274e+01,2.873234461651596842e-03
3.979803133336827159e+01,2.875552013805205212e-03
