Time [s],Voltage [V]
0.000000000000000000e+00,1.950719723551402017e-04
9.761933330446481705e-02,2.101740812240479248e-04
1.976330000907182693e-01,2.246423433794827746e-04
2.976190000772476196e-01,2.387220305269736583e-04
3.971739999251440167e-01,2.524624784011082887e-04
4.973193333717063069e-01,2.661030421985644771e-04
5.975703332806006074e-01,2.795863143093067337e-04
6.976613333681598306e-01,2.928940829649349757e-04
7.974463333375751972e-01,3.060059419713401577e-04
8.974483333295211196e-01,3.190103418762794529e-04
9.976496666204184294e-01,3.319290286254472947e-04
1.097421000013127923e+00,3.446692205149058446e-04
1.197595000034198165e+00,3.573372945915524301e-04
1.297433333355002105e+00,3.698575549142636481e-04
1.397665000054985285e+00,3.823351474526946172e-04
1.497490333393216133e+00,3.946555525245102431e-04
1.597664666711352766e+00,4.069120849713780746e-04
1.697333000018261373e+00,4.190176338149663752e-04
1.797387333353981376e+00,4.310939616164326553e-04
1.897271000081673265e+00,4.430591277206634600e-04
1.997536333277821541e+00,4.549790094220910325e-04
2.097536000073887408e+00,4.667881462850015720e-04
2.197392000001855195e+00,4.785102327471659660e-04
2.297488666721619666e+00,4.901805823468377435e-04
2.397320333402603865e+00,5.017402681433771622e-04
2.497311333427205682e+00,5.132437268000924731e-04
2.597493666689842939e+00,5.247004780441572253e-04
2.697273000027053058e+00,5.360406691113203843e-04
2.797348000109195709e+00,5.473455137292999569e-04
2.897526666638441384e+00,5.585947330291250691e-04
2.997326666722074151e+00,5.697362790141372556e-04
3.097628333372995257e+00,5.808699626563421439e-04
3.197333666612394154e+00,5.918757223904303052e-04
3.297424333286471665e+00,6.028638482402303659e-04
3.397448333329521120e+00,6.137861662207622603e-04
3.497759666759520769e+00,6.246828835929119387e-04
3.597636666730977595e+00,6.354774667293564038e-04
3.697396000032313168e+00,6.462034708929413184e-04
3.797276333323679864e+00,6.568863514244746701e-04
3.897577999974600971e+00,6.675616213827803005e-04
3.997282333322800696e+00,6.781223995137931112e-04
4.097389333299361169e+00,6.886761599099107704e-04
4.197557999985292554e+00,6.991880143305998592e-04
4.297449333244003356e+00,7.096239467307788882e-04
4.397596666705794632e+00,7.200410975814757093e-04
4.497365666669793427e+00,7.303698707737118438e-04
4.597509999992325902e+00,7.406866421000603534e-04
4.697319333325140178e+00,7.509235291395306060e-04
4.797545333392918110e+00,7.611585310662400891e-04
4.897519999998621643e+00,7.713242803048132043e-04
4.997221333323977888e+00,7.814198355153178415e-04
5.097281666705384851e+00,7.915101271304740517e-04
5.197484666714444757e+00,8.015739871633732663e-04
5.297505333321169019e+00,8.115768965680512969e-04
5.397421000059694052e+00,8.215260641053023869e-04
5.497648000018671155e+00,8.314659538297831508e-04
5.597512333421036601e+00,8.413304628785148653e-04
5.697370999958366156e+00,8.511557811141692549e-04
5.797479666653089225e+00,8.609676324820190411e-04
5.897411333397030830e+00,8.707248335721220469e-04
5.997608333360403776e+00,8.804712361017404468e-04
6.097270666738040745e+00,8.901265557147498061e-04
6.197725000092759728e+00,8.998179765662069366e-04
6.297365333302877843e+00,9.093937762872359755e-04
6.397686999989673495e+00,9.189981607415602253e-04
6.497362333349883556e+00,9.285044262192890556e-04
6.597550000064074993e+00,9.380235741501109867e-04
6.697467333404347301e+00,9.474815329286745153e-04
6.797375333379022777e+00,9.569035793358584164e-04
6.897798000019975007e+00,9.663400310233063138e-04
6.997867333353497088e+00,9.757100716703474667e-04
7.097351999953389168e+00,9.849923871114857343e-04
7.197493999963626266e+00,9.943033097831212308e-04
7.297546333400532603e+00,1.003573593216169121e-03
7.397448000032454729e+00,1.012798187120444223e-03
7.497442000079900026e+00,1.022000042535247365e-03
7.597507333382964134e+00,1.031177636319177780e-03
7.697264666669070721e+00,1.040296770659350153e-03
7.797240666695870459e+00,1.049406115102455251e-03
7.897609333274886012e+00,1.058521738664927603e-03
7.997358333435840905e+00,1.067552284758959509e-03
8.097406000015325844e+00,1.076581517314377165e-03
8.197503666626289487e+00,1.085587332475006130e-03
8.297561666695401073e+00,1.094562145345446278e-03
8.397638333379290998e+00,1.103511683663041705e-03
8.497351333266124129e+00,1.112396894379183866e-03
8.597266000113449991e+00,1.121267165068007450e-03
8.697429666644893587e+00,1.130131641611164519e-03
8.797709333361126482e+00,1.138978727632249284e-03
8.897694333340041339e+00,1.147772591775660187e-03
8.997714666649699211e+00,1.156542689095177174e-03
9.097612666664645076e+00,1.165275554043411965e-03
9.197495333384722471e+00,1.173980918827333695e-03
9.297571000060997903e+00,1.182677195779228800e-03
9.397788333357311785e+00,1.191360120165641575e-03
9.497652333346195519e+00,1.199987210488490368e-03
9.597374333417974412e+00,1.208577233836907478e-03
9.697648666682653129e+00,1.217190171953069777e-03
9.797640666714869440e+00,1.225754557670242356e-03
9.897452000062912703e+00,1.234279591236539346e-03
9.997696333331987262e+00,1.242817921782912814e-03
1.009787399997003376e+01,1.251323669952036054e-03
1.019761466665659100e+01,1.259765166602856441e-03
1.029724166670348495e+01,1.268173228188799063e-03
1.039728000003378838e+01,1.276592303217497556e-03
1.049729066668078303e+01,1.284985558097726010e-03
1.059778200008440763e+01,1.293395745036510051e-03
1.069748233328573406e+01,1.301716793857301147e-03
1.079748766671400517e+01,1.310040593486053433e-03
1.089745333336759359e+01,1.318338613867864155e-03
1.099739899998530746e+01,1.326612755914622580e-03
1.109768599993549287e+01,1.334893075609735677e-03
1.119766700000036508e+01,1.343126362482011896e-03
1.129742033337242901e+01,1.351319488884477737e-03
1.139758666674606502e+01,1.359525264336268035e-03
1.149741866660770029e+01,1.367682689083026155e-03
1.159761166665703058e+01,1.375848820758568359e-03
1.169729100004769862e+01,1.383948734150688455e-03
1.179717400006484240e+01,1.392040284383297064e-03
1.189727700001094490e+01,1.400128144292315992e-03
1.199722833326086402e+01,1.408182426414398159e-03
1.209751866664737463e+01,1.416242774117148270e-03
1.219750766665674746e+01,1.424257875656215026e-03
1.229722533328458667e+01,1.432230479094562465e-03
1.239742933341767639e+01,1.440221257853543848e-03
1.249771599995438010e+01,1.448198009445280862e-03
1.259741333336569369e+01,1.456107602505742234e-03
1.269745300000067800e+01,1.464024190594699279e-03
1.279741333331912756e+01,1.471914489150420420e-03
1.289773633331060410e+01,1.479813466470271659e-03
1.299767299997620285e+01,1.487662320556284480e-03
1.309728466672822833e+01,1.495466240954838096e-03
1.319766599999275059e+01,1.503311021527777621e-03
1.329765666672028601e+01,1.511103705178286610e-03
1.339740400004666299e+01,1.518855743691621251e-03
1.349752133328001946e+01,1.526616787176450279e-03
1.359738366666715592e+01,1.534338465819754839e-03
1.369735466665588319e+01,1.542049056549474068e-03
1.379738433333113790e+01,1.549744768123040035e-03
1.389754200004972517e+01,1.557430994792869229e-03
1.399720566673204303e+01,1.565060222893414508e-03
1.409730733337346464e+01,1.572703926971089679e-03
1.419745033327490091e+01,1.580331795227386902e-03
1.429735100001562387e+01,1.587922392098375327e-03
1.439767133339773864e+01,1.595526081909676847e-03
1.449757566663902253e+01,1.603079639218989248e-03
1.459747566666919738e+01,1.610614420574123934e-03
1.469736433331854641e+01,1.618130016110968638e-03
1.479734966671094298e+01,1.625634642192778706e-03
1.489733233337756246e+01,1.633120069807637593e-03
1.499746599991340190e+01,1.640597684051992283e-03
1.509760066668968648e+01,1.648057001097537940e-03
1.519736666674725711e+01,1.655470659397397393e-03
1.529746766667813063e+01,1.662891031633178824e-03
1.539761133329011500e+01,1.670296416863242426e-03
1.549753333337139338e+01,1.677667387563930908e-03
1.559720999991986901e+01,1.685002392812683103e-03
1.569752166664693505e+01,1.692366177477416063e-03
1.579745433328207582e+01,1.699684302233880635e-03
1.589760400005616248e+01,1.707000520754031227e-03
1.599754733336158097e+01,1.714283967622283337e-03
1.609751900006085634e+01,1.721551853263566774e-03
1.619746633339673281e+01,1.728800407850108675e-03
1.629726933338679373e+01,1.736021031384479569e-03
1.639757133333478123e+01,1.743260232389016399e-03
1.649754633335396647e+01,1.750458590318155561e-03
1.659721266664564610e+01,1.757617678669407728e-03
1.669735566666349769e+01,1.764793783984684858e-03
1.679758100002072752e+01,1.771958564174121393e-03
1.689750333339907229e+01,1.779084588118484255e-03
1.699728166672866791e+01,1.786183366398078759e-03
1.709736433334182948e+01,1.793286810762638938e-03
1.719767233333550394e+01,1.800389234084161239e-03
1.729748533340170979e+01,1.807439754301344136e-03
1.739740900008473545e+01,1.814481303549744101e-03
1.749758933333214372e+01,1.821524128883539838e-03
1.759728633332997561e+01,1.828516313921411734e-03
1.769741833338048309e+01,1.835522326270003224e-03
1.779776900005526841e+01,1.842526913851852844e-03
1.789788866660092026e+01,1.849498739145334983e-03
1.799731366662308574e+01,1.856405789717043269e-03
1.809747633337974548e+01,1.863347602990244548e-03
1.819771400000900030e+01,1.870278094667719368e-03
1.829746733338106424e+01,1.877158734727566846e-03
1.839731000002939254e+01,1.884029230148123388e-03
1.849751000001560897e+01,1.890907952646113301e-03
1.859798866673372686e+01,1.897789384218939637e-03
1.869743633328471333e+01,1.904584050971913720e-03
1.879761100001633167e+01,1.911412176464001317e-03
1.889774199994280934e+01,1.918221098888430983e-03
1.899738399998750538e+01,1.924980697995020253e-03
1.909745300002396107e+01,1.931753161318124686e-03
1.919726733339484781e+01,1.938492344351604732e-03
1.929766799998469651e+01,1.945254978946290994e-03
1.939767566660884768e+01,1.951975082800793022e-03
1.949737666675355285e+01,1.958658652763370974e-03
1.959745333332102746e+01,1.965351439490847091e-03
1.969766633340623230e+01,1.972038603873341265e-03
1.979754499997943640e+01,1.978688821654520612e-03
1.989770400000270456e+01,1.985342107310558626e-03
1.999761800002306700e+01,1.991963598207646853e-03
2.009765033330768347e+01,1.998577444114594572e-03
2.019726266665384173e+01,2.005148162504754878e-03
2.029747366660740227e+01,2.011742946401371725e-03
2.039750266668852419e+01,2.018310364267130504e-03
2.049746866663917899e+01,2.024858324452815349e-03
2.059746266668662429e+01,2.031392833920829446e-03
2.069773100002203137e+01,2.037929958692694197e-03
2.079766233335249126e+01,2.044429893435473124e-03
2.089750333328265697e+01,2.050908816090747655e-03
2.099730899999849498e+01,2.057370359812709781e-03
2.109741133335046470e+01,2.063835994400878456e-03
2.119745133339893073e+01,2.070282513288368084e-03
2.129756866663228720e+01,2.076718946948977098e-03
2.139730866672471166e+01,2.083116166019294540e-03
2.149738233326934278e+01,2.089519815543630643e-03
2.159731966676190495e+01,2.095899808045421833e-03
2.169761766667943448e+01,2.102287852947117008e-03
2.179763066675513983e+01,2.108642841018288847e-03
2.189766233332920820e+01,2.114984157166968984e-03
2.199720933334901929e+01,2.121280026233154231e-03
2.209740800003055483e+01,2.127602307338531500e-03
2.219728033337742090e+01,2.133889246980915678e-03
2.229760200006421655e+01,2.140189673392532948e-03
2.239744433341547847e+01,2.146445297514345055e-03
2.249755300011020154e+01,2.152702912239674686e-03
2.259732499998062849e+01,2.158924865878185557e-03
2.269767366675660014e+01,2.165168087558067868e-03
2.279750766663346440e+01,2.171364690109462477e-03
2.289757366664707661e+01,2.177561190826683181e-03
2.299749966664239764e+01,2.183734551990995122e-03
2.309733600006438792e+01,2.189887892464819231e-03
2.319748266669921577e+01,2.196045840469406513e-03
2.329764633334707469e+01,2.202190309935885253e-03
2.339762866671662778e+01,2.208309191314184426e-03
2.349752466671634465e+01,2.214408377271651161e-03
2.359756800008472055e+01,2.220502141276568635e-03
2.369736766675487161e+01,2.226566707217493037e-03
2.379734966671094298e+01,2.232627994036264808e-03
2.389731133345048875e+01,2.238673698596720454e-03
2.399750466668047011e+01,2.244719034004703621e-03
2.409736333345063031e+01,2.250729868704608172e-03
2.419760800001677126e+01,2.256749587435868780e-03
2.429731833329424262e+01,2.262722971436612572e-03
2.439735866675619036e+01,2.268701859551996991e-03
2.449742800008971244e+01,2.274668200225280455e-03
2.459776300005614758e+01,2.280636054842972993e-03
2.469741066673304886e+01,2.286548842985618602e-03
2.479764133330900222e+01,2.292481977293293893e-03
2.489754499995615333e+01,2.298381547921922625e-03
2.499755299999378622e+01,2.304273085093941787e-03
2.509767633338924497e+01,2.310157200815721873e-03
2.519768400001339614e+01,2.316020329740396677e-03
2.529748966672923416e+01,2.321857487472077548e-03
2.539759299997240305e+01,2.327697885696309796e-03
2.549746533331926912e+01,2.333510674172632228e-03
2.559747399995103478e+01,2.339317260248276967e-03
2.569761000003200024e+01,2.345117072494824241e-03
2.579755700007081032e+01,2.350891808584383829e-03
2.589733666670508683e+01,2.356642801642953779e-03
2.599774000002071261e+01,2.362415550957887474e-03
2.609737600001972169e+01,2.368132954389587982e-03
2.619747466675471514e+01,2.373865363884836502e-03
2.629732599994167686e+01,2.379570119987244221e-03
2.639740466664079577e+01,2.385274377761030518e-03
2.649748866667505354e+01,2.390965468746901641e-03
2.659760500001721084e+01,2.396644952752213353e-03
2.669769166666083038e+01,2.402309344119229681e-03
2.679767899995204061e+01,2.407954757959771680e-03
2.689748833340127021e+01,2.413576839992305056e-03
2.699784133338835090e+01,2.419216199329793197e-03
2.709771166660357267e+01,2.424815180621625165e-03
2.719795199995860457e+01,2.430421640906345240e-03
2.729746133333537728e+01,2.435974104106605320e-03
2.739766533335205168e+01,2.441552159109129563e-03
2.749753933330066502e+01,2.447098725546614523e-03
2.759771200001705438e+01,2.452648754774659420e-03
2.769755066675134003e+01,2.458167232647762851e-03
2.779738500004168600e+01,2.463672478907814965e-03
2.789757533336523920e+01,2.469184326615354256e-03
2.799730033334344625e+01,2.474657643849952418e-03
2.809741866670083255e+01,2.480139603301573757e-03
2.819727999996393919e+01,2.485594601051340034e-03
2.829754399997182190e+01,2.491058675219165290e-03
2.839757566666230559e+01,2.496497218852229173e-03
2.849736833339557052e+01,2.501909991636428431e-03
2.859765466663520783e+01,2.507336716023469449e-03
2.869762700004503131e+01,2.512733684215796067e-03
2.879761066660284996e+01,2.518118548418632301e-03
2.889765866671223193e+01,2.523494179922365892e-03
2.899768233334179968e+01,2.528855838217169277e-03
2.909720633341930807e+01,2.534178173871835544e-03
2.919760866661090404e+01,2.539534838969557864e-03
2.929764866665937006e+01,2.544858268119946053e-03
2.939758400002028793e+01,2.550162481249786464e-03
2.949753833329305053e+01,2.555454945784698360e-03
2.959752399998251349e+01,2.560736322949323622e-03
2.969770766666624695e+01,2.566015390000061808e-03
2.979749833338428289e+01,2.571261059292383969e-03
2.989767166669480503e+01,2.576514124030650135e-03
2.999751533335074782e+01,2.581737236156703315e-03
3.009729633328970522e+01,2.586944454078098782e-03
3.019730066671036184e+01,2.592150688659818937e-03
3.029767600004561245e+01,2.597363530436795284e-03
3.039763533335644752e+01,2.602542131787909802e-03
3.049749166669789702e+01,2.607702821778155444e-03
3.059752299997489899e+01,2.612859969011698934e-03
3.069767133332788944e+01,2.618010542741342362e-03
3.079773133329581469e+01,2.623143991675652275e-03
3.089737666666042060e+01,2.628243682339235186e-03
3.099731100001372397e+01,2.633345664524363097e-03
3.109735733328852803e+01,2.638440839862227216e-03
3.119737933331634849e+01,2.643522261785437224e-03
3.129765200009569526e+01,2.648603871479519433e-03
3.139774699998088181e+01,2.653663960734981269e-03
3.149761700001545250e+01,2.658700224372667533e-03
3.159741766669321805e+01,2.663720579231593742e-03
3.169717366667464375e+01,2.668726298927903001e-03
3.179749433335382491e+01,2.673747873893155946e-03
3.189746000000741333e+01,2.678739241901315678e-03
3.199740833335090429e+01,2.683717343083372436e-03
3.209762966667767614e+01,2.688696600824017676e-03
3.219745700003113598e+01,2.693643909440126844e-03
3.229756300000008196e+01,2.698592636671189385e-03
3.239747666672337800e+01,2.703519492187279362e-03
3.249753633327782154e+01,2.708442467131231407e-03
3.259760233329143375e+01,2.713354449279050881e-03
3.269759800005704165e+01,2.718250888157971827e-03
3.279761766665615141e+01,2.723136432442948337e-03
3.289773266669362783e+01,2.728014565979263416e-03
3.299754700006451458e+01,2.732866051601268425e-03
3.309765733336098492e+01,2.737719912179728023e-03
3.319770566665101796e+01,2.742558768877288201e-03
3.329752233333420008e+01,2.747374489349399887e-03
3.339764300000388175e+01,2.752192925069162858e-03
3.349737400002777576e+01,2.756980728476819253e-03
3.359748366661369801e+01,2.761774807811390089e-03
3.369749633327592164e+01,2.766552354703094834e-03
3.379730733332689852e+01,2.771308443106381553e-03
3.389766666665673256e+01,2.776078770269425899e-03
3.399725533335004002e+01,2.780800700800361690e-03
3.409757166670169681e+01,2.785545305434710892e-03
3.419734533329028636e+01,2.790252489688734017e-03
3.429732766665983945e+01,2.794957779901675182e-03
3.439735833334270865e+01,2.799653605724186992e-03
3.449755733332131058e+01,2.804345582719517359e-03
3.459763466671574861e+01,2.809020143385686317e-03
3.469737766671460122e+01,2.813667454391048390e-03
3.479761133331339806e+01,2.818325947770271116e-03
3.489745033334475011e+01,2.822954479895453152e-03
3.499723033339250833e+01,2.827568711464814935e-03
3.509746333339717239e+01,2.832192271007900886e-03
3.519771733332891017e+01,2.836805168889081075e-03
3.529752833337988704e+01,2.841386148869045128e-03
3.539769300003536046e+01,2.845971810734552500e-03
3.549757033330388367e+01,2.850532817185981449e-03
3.559791766665875912e+01,2.855103741133837355e-03
3.569777666660957038e+01,2.859640078010523487e-03
3.579729799996130168e+01,2.864149063022646425e-03
3.589743500004988164e+01,2.868674384511025327e-03
3.599744366668164730e+01,2.873182352489177336e-03
3.609765966667328030e+01,2.877688100555468240e-03
3.619749866670463234e+01,2.882165402970935167e-03
3.629732499993406236e+01,2.886630682306170603e-03
3.639757933327928185e+01,2.891103595034152061e-03
3.649761700001545250e+01,2.895555359343789277e-03
3.659732966660521924e+01,2.899981264124194998e-03
3.669767399993725121e+01,2.904423736737452889e-03
3.679759433330036700e+01,2.908836021601577879e-03
3.689745200006291270e+01,2.913234174555634493e-03
3.699742499995045364e+01,2.917626043210104318e-03
3.709746366669423878e+01,2.922009431599835883e-03
3.719737566669937223e+01,2.926375939401210623e-03
3.729728800000157207e+01,2.930731155190125729e-03
3.739740799996070564e+01,2.935084098169298342e-03
3.749761700001545250e+01,2.939429575527245132e-03
3.759747599996626377e+01,2.943748611404716289e-03
3.769752300006803125e+01,2.948064519230560697e-03
3.779731900000479072e+01,2.952358388398740666e-03
3.789760033343918622e+01,2.956661878048348624e-03
3.799733033333905041e+01,2.960930528307333283e-03
3.809751066670287400e+01,2.965207246398140692e-03
3.819757533329539001e+01,2.969467830285121412e-03
3.829743033333215863e+01,2.973708348923599903e-03
3.839769533334765583e+01,2.977955100834392931e-03
3.849760633334517479e+01,2.982175734004526100e-03
3.859778866660781205e+01,2.986396695614304542e-03
3.869729866669513285e+01,2.990578309736231268e-03
3.879747333331033587e+01,2.994776777883735933e-03
3.889752033341210335e+01,2.998958819870570659e-03
3.899747433338779956e+01,3.003125938180926761e-03
3.909758066665381193e+01,3.007288367829756993e-03
3.919769499998074025e+01,3.011440097724163607e-03
3.929730000009294599e+01,3.015559773519060557e-03
3.939751399995293468e+01,3.019693649977588622e-03
3.949755166668910533e+01,3.023809277343865454e-03
3.959728400001768023e+01,3.027901444320667875e-03
3.969731866673100740e+01,3.031995101629772309e-03
3.979747233330272138e+01,3.036082694619401338e-03
