Time [s],Voltage [V]
0.000000000000000000e+00,3.612437953016246024e-04
9.793566656298935413e-02,3.871306515036400603e-04
1.981416667113080621e-01,4.123251337412216092e-04
2.977839999366551638e-01,4.367086185648681165e-04
3.979050001362338662e-01,4.606037207633989104e-04
4.979619999649003148e-01,4.840537472849486787e-04
5.978590000886470079e-01,5.070291570332870765e-04
6.979636667529121041e-01,5.295518171401460876e-04
7.979906667023897171e-01,5.515754070189005749e-04
8.976943333400413394e-01,5.730990478007322135e-04
9.977523332927376032e-01,5.942559376813401481e-04
1.097742333309724927e+00,6.149534175262371142e-04
1.197637666598893702e+00,6.351870529499378934e-04
1.297734666732139885e+00,6.551286864540832935e-04
1.397744333487935364e+00,6.746613889563625715e-04
1.497844666708260775e+00,6.938143863339455829e-04
1.597914333338849247e+00,7.125641056333514075e-04
1.698082666727714241e+00,7.310551147387832393e-04
1.798005333286710083e+00,7.491631423027742291e-04
1.898039666586555541e+00,7.669467752566502296e-04
1.998023999971337616e+00,7.843769545811372663e-04
2.097702999948523939e+00,8.015109222624328339e-04
2.197723333374597132e+00,8.184101197380655923e-04
2.297788666677661240e+00,8.350160665567174425e-04
2.398021999979391694e+00,8.513482135074329060e-04
2.497757666627876461e+00,8.673507249460150241e-04
2.597742666723206639e+00,8.831344582722505969e-04
2.697861333377659321e+00,8.986838117468938254e-04
2.797980333329178393e+00,9.139852705557470480e-04
2.897643333417363465e+00,9.289857078537424283e-04
2.997709333430975676e+00,9.438210035593485236e-04
3.098035666625946760e+00,9.584760184896908876e-04
3.197637666715309024e+00,9.728171915861548794e-04
3.297637666575610638e+00,9.870012434995613804e-04
3.397671000100672245e+00,1.000986035109027597e-03
3.498074000119231641e+00,1.014825273351601786e-03
3.598064333316870034e+00,1.028417785465900007e-03
3.697637666715309024e+00,1.041771811295724758e-03
3.797654000110924244e+00,1.055009108440898603e-03
3.897889666724950075e+00,1.068104855391392542e-03
3.997990666655823588e+00,1.081019124910502418e-03
4.097932333359494805e+00,1.093738958500907032e-03
4.197944000014103949e+00,1.106307368037541799e-03
4.297643999918363988e+00,1.118684582976623570e-03
4.397713666665367782e+00,1.130960531902568946e-03
4.497718000086024404e+00,1.143086662111157323e-03
4.597781333257444203e+00,1.155083555016664680e-03
4.698064333293586969e+00,1.166975418696368592e-03
4.797656666720286012e+00,1.178660683808869332e-03
4.897779999999329448e+00,1.190255727465145503e-03
4.997776333359070122e+00,1.201702605405298614e-03
5.097641666536219418e+00,1.213010496376921380e-03
5.197660666774027050e+00,1.224215510413692934e-03
5.297992666717618704e+00,1.235338599340732747e-03
5.398038666578941047e+00,1.246317245643281365e-03
5.497661333298310637e+00,1.257141476451608016e-03
5.597713000024668872e+00,1.267907804553839324e-03
5.698002666700631380e+00,1.278569928557742649e-03
5.797637999872677028e+00,1.289048414437730765e-03
5.897788000060245395e+00,1.299474285305875394e-03
5.997800000011920929e+00,1.309781511553394142e-03
6.097870666766539216e+00,1.319993007017784565e-03
6.197965999948792160e+00,1.330107697542942755e-03
6.298006000113673508e+00,1.340120065725223641e-03
6.398064666776917875e+00,1.350040091740327625e-03
6.497950333287008107e+00,1.359842759228740419e-03
6.597991000046022236e+00,1.369565789297723206e-03
6.698005666723474860e+00,1.379195338447288151e-03
6.798082333407364786e+00,1.388741906734552219e-03
6.897652999963611364e+00,1.398153960290878135e-03
6.997803333448246121e+00,1.407536099239389740e-03
7.097795000066980720e+00,1.416820693961480786e-03
7.197708666790276766e+00,1.426017598635760230e-03
7.297771999961696565e+00,1.435139543941402109e-03
7.397858333308249712e+00,1.444179798909800373e-03
7.498016999918036163e+00,1.453146770505654283e-03
7.597798333503305912e+00,1.462002097726552118e-03
7.697733999928459525e+00,1.470794757781749337e-03
7.797745333402417600e+00,1.479519100106207064e-03
7.897722999914549291e+00,1.488167075150155505e-03
7.997769000008702278e+00,1.496749004821018494e-03
8.097767333383671939e+00,1.505256452849515220e-03
8.197846666676923633e+00,1.513701868997638063e-03
8.297830666648223996e+00,1.522071924440658846e-03
8.397885000100359321e+00,1.530382050868010595e-03
8.497759000048972666e+00,1.538613070487568563e-03
8.597877333406358957e+00,1.546801458224932166e-03
8.697928000008687377e+00,1.554923068706103896e-03
8.798029666650108993e+00,1.562989090216688375e-03
8.898428999935276806e+00,1.571014741302871869e-03
8.997990333242341876e+00,1.578913533848302301e-03
9.098048333427868783e+00,1.586795041751207095e-03
9.197637333418242633e+00,1.594584584516933355e-03
9.297740999958477914e+00,1.602360481801936177e-03
9.397758333361707628e+00,1.610077122529309304e-03
9.497835000045597553e+00,1.617747189345653414e-03
9.597939666709862649e+00,1.625369637621410304e-03
9.697668000007979572e+00,1.632915353515479884e-03
9.797653333400376141e+00,1.640433760031961147e-03
9.897748333401978016e+00,1.647914942102628438e-03
9.997798333293758333e+00,1.655348718168866886e-03
1.009793166664894670e+01,1.662746022760830215e-03
1.019768600002862513e+01,1.670074305440574433e-03
1.029779666662216187e+01,1.677389020873069382e-03
1.039780933328438550e+01,1.684658239281237521e-03
1.049783433333504945e+01,1.691860572429647411e-03
1.059763800003565848e+01,1.698990141127131731e-03
1.069764366676099598e+01,1.706091329709811394e-03
1.079763766669202596e+01,1.713149766844499324e-03
1.089783600007649511e+01,1.720181505381136993e-03
1.099787199997808784e+01,1.727161713168505214e-03
1.109794433333445340e+01,1.734105254123742990e-03
1.119768633320927620e+01,1.740987779465050277e-03
1.129792399995494634e+01,1.747867116969073703e-03
1.139799599989783019e+01,1.754698620297522396e-03
1.149795166659168899e+01,1.761486735420525951e-03
1.159770533326081932e+01,1.768226733106144279e-03
1.169789433339610696e+01,1.774962479635946565e-03
1.179797333339229226e+01,1.781658073619658746e-03
1.189804066671058536e+01,1.788321079528009880e-03
1.199764033337123692e+01,1.794922280280306353e-03
1.209767466667108238e+01,1.801502856457454834e-03
1.219796066673006862e+01,1.808054824542484115e-03
1.229801366676110774e+01,1.814557422812121748e-03
1.239800100005231798e+01,1.821022264141047408e-03
1.249809366662520915e+01,1.827460970051956665e-03
1.259785433334764093e+01,1.833846101835046993e-03
1.269796800008043647e+01,1.840222076759771798e-03
1.279800333327148110e+01,1.846561878232555508e-03
1.289803733327426016e+01,1.852871008345592955e-03
1.299763766664545983e+01,1.859122979215984718e-03
1.309767266665585339e+01,1.865372878816749964e-03
1.319782033329829574e+01,1.871600933436521827e-03
1.329763866669964045e+01,1.877780332303929933e-03
1.339763800008222461e+01,1.883943314682340201e-03
1.349763766664545983e+01,1.890079254661613650e-03
1.359772666671779007e+01,1.896194161947862156e-03
1.369778566679451615e+01,1.902270431259142722e-03
1.379804000013973564e+01,1.908322797398397368e-03
1.389804800006095320e+01,1.914331932175047674e-03
1.399764399998821318e+01,1.920288538570008498e-03
1.409776900010183454e+01,1.926249226476787948e-03
1.419808033341541886e+01,1.932193682624347257e-03
1.429764133342541754e+01,1.938067008365852413e-03
1.439772599993739277e+01,1.943944830736881379e-03
1.449794433347415179e+01,1.949804366743849993e-03
1.459788633324205875e+01,1.955622080987391882e-03
1.469786833331454545e+01,1.961416858774439262e-03
1.479792133346199989e+01,1.967190835189118990e-03
1.489764300012029707e+01,1.972921267490746443e-03
1.499772333342116326e+01,1.978648175967621069e-03
1.509788733336608857e+01,1.984356045406197519e-03
1.519776966678909957e+01,1.990024507843416585e-03
1.529791099997237325e+01,1.995681114593124937e-03
1.539800400007516146e+01,2.001308216304069527e-03
1.549809733335860074e+01,2.006911438335764498e-03
1.559792133327573538e+01,2.012476006917174320e-03
1.569803366670385003e+01,2.018033222473330796e-03
1.579800066666211933e+01,2.023559176590395380e-03
1.589805366669315845e+01,2.029066886456846238e-03
1.599767233338207006e+01,2.034528030216623332e-03
1.609769933344796300e+01,2.039989008585719240e-03
1.619801033346448094e+01,2.045442991003122626e-03
1.629774066666141152e+01,2.050843249313749443e-03
1.639772200002335012e+01,2.056235105935052404e-03
1.649786466662772000e+01,2.061613762709731644e-03
1.659799966670107096e+01,2.066970260329685331e-03
1.669804833340458572e+01,2.072300583285522323e-03
1.679768466670066118e+01,2.077587678879999188e-03
1.689778799994383007e+01,2.082878737015891706e-03
1.699781366682145745e+01,2.088145133817865661e-03
1.709790300007443875e+01,2.093394112889055900e-03
1.719772666669450700e+01,2.098608616675054842e-03
1.729763766669202596e+01,2.103807285535957364e-03
1.739775899995584041e+01,2.108996569273639213e-03
1.749789100012276322e+01,2.114166187972043968e-03
1.759792833344545215e+01,2.119310859704784042e-03
1.769795399997383356e+01,2.124435010451977864e-03
1.779795099992770702e+01,2.129537901625080942e-03
1.789802866661921144e+01,2.134625212317663688e-03
1.799807833344675601e+01,2.139691513108342262e-03
1.809774866665247828e+01,2.144719236819457933e-03
1.819786033337004483e+01,2.149749862215891410e-03
1.829792966658715159e+01,2.154759063648158807e-03
1.839803133334498852e+01,2.159750671126929849e-03
1.849772799992933869e+01,2.164704712475825667e-03
1.859764466667547822e+01,2.169653333388804964e-03
1.869773833325598389e+01,2.174592676131604195e-03
1.879781833325978369e+01,2.179513443924628070e-03
1.889791500009596348e+01,2.184417281972726114e-03
1.899796900001820177e+01,2.189301443019392272e-03
1.909774333331733942e+01,2.194154592791140636e-03
1.919796033343300223e+01,2.199011972983464045e-03
1.929763766669202596e+01,2.203826142537076635e-03
1.939770233328454196e+01,2.208642057394440139e-03
1.949780666676815599e+01,2.213443019913947929e-03
1.959802466677501798e+01,2.218232682561986635e-03
1.969782800006214529e+01,2.222986009888088758e-03
1.979806633328553289e+01,2.227743602241646220e-03
1.989808766671922058e+01,2.232474596545968790e-03
1.999763966677710414e+01,2.237167358219149631e-03
2.009800300002098083e+01,2.241882306449862611e-03
2.019807966670487076e+01,2.246567863630355259e-03
2.029763766669202596e+01,2.251213487456289481e-03
2.039767566672526300e+01,2.255865914056011563e-03
2.049776066665071994e+01,2.260505008041451078e-03
2.059782200015615672e+01,2.265127612208068554e-03
2.069789199996739626e+01,2.269735345634891089e-03
2.079794666671659797e+01,2.274327224870450852e-03
2.089767533342819661e+01,2.278889187240514848e-03
2.099764766672160476e+01,2.283447425906599132e-03
2.109776633337605745e+01,2.287997530439774517e-03
2.119791566673666239e+01,2.292534317904484573e-03
2.129795966669917107e+01,2.297051755024336929e-03
2.139800433337222785e+01,2.301554760275991394e-03
2.149770700000226498e+01,2.306028090879030761e-03
2.159778500010725111e+01,2.310504029395032098e-03
2.169775500008836389e+01,2.314960123040416852e-03
2.179788733331952244e+01,2.319407593182853423e-03
2.189791833341587335e+01,2.323836262746263679e-03
2.199796666670590639e+01,2.328251479768676975e-03
2.209763733332511038e+01,2.332635962705973971e-03
2.219763966673053801e+01,2.337020995918104044e-03
2.229763833340257406e+01,2.341391875121679074e-03
2.239773133327253163e+01,2.345752931574628195e-03
2.249763766664545983e+01,2.350092005616219101e-03
2.259763733332511038e+01,2.354421339310296644e-03
2.269769499998074025e+01,2.358739431187647541e-03
2.279763933341018856e+01,2.363038955689962962e-03
2.289775666664354503e+01,2.367332273228764036e-03
2.299786066659726202e+01,2.371611413149070108e-03
2.309802366665098816e+01,2.375879508355210369e-03
2.319804333336651325e+01,2.380128001929509522e-03
2.329764200013596565e+01,2.384345258463190474e-03
2.339769066660664976e+01,2.388568195139208379e-03
2.349772400013171136e+01,2.392777124021477127e-03
2.359783699992112815e+01,2.396976067485695298e-03
2.369802966678980738e+01,2.401165029545515583e-03
2.379763766680844128e+01,2.405316368673732393e-03
2.389775166660547256e+01,2.409475586833069449e-03
2.399778833333402872e+01,2.413618393202274746e-03
2.409785200003534555e+01,2.417749144656517087e-03
2.419796366663649678e+01,2.421868717097143582e-03
2.429791566659696400e+01,2.425968608471574910e-03
2.439780299994163215e+01,2.430052778604681850e-03
2.449793266679625958e+01,2.434133761770766909e-03
2.459800266660749912e+01,2.438199227733829026e-03
2.469800366670824587e+01,2.442248834409581088e-03
2.479772800009232014e+01,2.446274249206816225e-03
2.489777600008528680e+01,2.450302360759249853e-03
2.499801233340986073e+01,2.454333003600280613e-03
2.509797433333005756e+01,2.458340815892848339e-03
2.519805566675495356e+01,2.462341673570245422e-03
2.529805700003635138e+01,2.466327665141265779e-03
2.539767300011590123e+01,2.470286764120267417e-03
2.549774466664530337e+01,2.474252444558062806e-03
2.559791299991775304e+01,2.478210445535367502e-03
2.569770599994808435e+01,2.482142224634242313e-03
2.579777633340563625e+01,2.486073572421473171e-03
2.589783200004603714e+01,2.489993030902053293e-03
2.599763766664545983e+01,2.493891483305535166e-03
2.609763766673859209e+01,2.497786351026881711e-03
2.619771333341486752e+01,2.501673022166987261e-03
2.629777766659390181e+01,2.505548161526607864e-03
2.639784866664558649e+01,2.509412520415238608e-03
2.649787533329799771e+01,2.513264188060516675e-03
2.659764233336318284e+01,2.517094973960676101e-03
2.669770899997092783e+01,2.520926398861002109e-03
2.679773200000636280e+01,2.524745324729650402e-03
2.689788366667926311e+01,2.528558366175078301e-03
2.699806566664483398e+01,2.532361801414242160e-03
2.709763766662217677e+01,2.536131459533531949e-03
2.719791533343959600e+01,2.539917180223884470e-03
2.729798933328129351e+01,2.543684598660618523e-03
2.739763766666874290e+01,2.547425500763879878e-03
2.749768733337987214e+01,2.551170979427709248e-03
2.759796233335509896e+01,2.554914389087182755e-03
2.769807066675275564e+01,2.558641127547333326e-03
2.779764899995643646e+01,2.562337817377904545e-03
2.789765566668938845e+01,2.566040089735118976e-03
2.799801433330867440e+01,2.569745035781998040e-03
2.809803300013300031e+01,2.573427662052162317e-03
2.819767666677944362e+01,2.577088866199714768e-03
2.829768433340359479e+01,2.580753614177108343e-03
2.839787099999375641e+01,2.584415097914632628e-03
2.849763766664545983e+01,2.588051511881103977e-03
2.859763766673859209e+01,2.591686746760417121e-03
2.869771900016348809e+01,2.595315280664798642e-03
2.879790166672319174e+01,2.598937861202832086e-03
2.889788433327339590e+01,2.602543654662870919e-03
2.899807266681455076e+01,2.606147337981042089e-03
2.909784599998965859e+01,2.609726662912474193e-03
2.919788333331234753e+01,2.613306055963308776e-03
2.929791800002567470e+01,2.616875984441526838e-03
2.939795566676184535e+01,2.620436695603797078e-03
2.949806199991144240e+01,2.623990561251309840e-03
2.959764400008134544e+01,2.627516636187302804e-03
2.969773133343551308e+01,2.631051425341102319e-03
2.979792833339888602e+01,2.634580912903829869e-03
2.989764033327810466e+01,2.638084244717983900e-03
2.999765366665087640e+01,2.641589114536870616e-03
3.009776199993211776e+01,2.645088278496949760e-03
3.019776233343873173e+01,2.648574682854286898e-03
3.029800699988845736e+01,2.652060632558826854e-03
3.039779866673052311e+01,2.655521945016975360e-03
3.049788166675716639e+01,2.658984497515764350e-03
3.059797066659666598e+01,2.662438416545260134e-03
3.069805666676256806e+01,2.665883428203221980e-03
3.079784766666125506e+01,2.669309557193500024e-03
3.089795700006652623e+01,2.672737893804749514e-03
3.099796266667544842e+01,2.676153993294358348e-03
3.109774900006595999e+01,2.679553981007545913e-03
3.119801233336329460e+01,2.682961583409252965e-03
3.129763766669202596e+01,2.686338908254549181e-03
3.139791166677605361e+01,2.689729057059933679e-03
3.149793100007809699e+01,2.693101992933025560e-03
3.159795899991877377e+01,2.696466655703686020e-03
3.169791899994015694e+01,2.699820501155336758e-03
3.179792499996256083e+01,2.703167383332004837e-03
3.189804033329710364e+01,2.706509427650765232e-03
3.199809066671878099e+01,2.709840833868197834e-03
3.209774100012145936e+01,2.713150530440595204e-03
3.219787233334500343e+01,2.716467791402325804e-03
3.229763733339495957e+01,2.719764553683918541e-03
3.239793066668789834e+01,2.723070383638905544e-03
3.249798833334352821e+01,2.726360083388149839e-03
3.259801733342465013e+01,2.729640512618626124e-03
3.269792733341455460e+01,2.732908747344951154e-03
3.279802366672083735e+01,2.736174786583605613e-03
3.289809333335142583e+01,2.739431679242978340e-03
3.299765733326785266e+01,2.742663929087732315e-03
3.309802499995566905e+01,2.745914169113181265e-03
3.319763733330182731e+01,2.749131972692550347e-03
3.329776666662655771e+01,2.752358484898129350e-03
3.339783666667062789e+01,2.755575094683047552e-03
3.349792733334470540e+01,2.758784392719817839e-03
3.359794033330399543e+01,2.761983246709235479e-03
3.369774100009817630e+01,2.765167397078484475e-03
3.379782100010197610e+01,2.768352534953189784e-03
3.389791066665202379e+01,2.771530055359839456e-03
3.399800699995830655e+01,2.774699872200297492e-03
3.409791166672948748e+01,2.777855736995834234e-03
3.419770900008734316e+01,2.781000358702366906e-03
3.429779400001280010e+01,2.784146171456360758e-03
3.439781800005584955e+01,2.787282197696269379e-03
3.449800266674719751e+01,2.790415383108528925e-03
3.459807999990880489e+01,2.793542735029995189e-03
3.469771733332891017e+01,2.796649166858375217e-03
3.479801233345642686e+01,2.799768892012682690e-03
3.489811066666152328e+01,2.802875322513268506e-03
3.499769766663666815e+01,2.805958804897247267e-03
3.509799099992960691e+01,2.809057056628955218e-03
3.519805333332624286e+01,2.812141107170640190e-03
3.529801266663707793e+01,2.815214972829938912e-03
3.539769566664472222e+01,2.818273398794203001e-03
3.549775500001851469e+01,2.821336435015003429e-03
3.559785099991131574e+01,2.824393676193419963e-03
3.569771800015587360e+01,2.827437063445517422e-03
3.579775299993343651e+01,2.830478736798165869e-03
3.589781633333768696e+01,2.833514464825034017e-03
3.599788399995304644e+01,2.836543551413522879e-03
3.609769300010520965e+01,2.839558096372227745e-03
3.619772533327341080e+01,2.842572696264912286e-03
3.629775166662875563e+01,2.845580453105677442e-03
3.639785233337897807e+01,2.848583810710999219e-03
3.649790700001176447e+01,2.851579190822907742e-03
3.659800266660749912e+01,2.854569233409796642e-03
3.669794333341997117e+01,2.857548129554368654e-03
3.679781366675160825e+01,2.860518459488262805e-03
3.689783866656944156e+01,2.863486941502302926e-03
3.699791666667442769e+01,2.866450572883148026e-03
3.709799499996006489e+01,2.869407823375419529e-03
3.719763766671530902e+01,2.872345885283267806e-03
3.729768666659947485e+01,2.875289622817173759e-03
3.739791699999477714e+01,2.878232394533591660e-03
3.749790166667662561e+01,2.881161703935545410e-03
3.759791166672948748e+01,2.884085545418591575e-03
3.769803566660266370e+01,2.887006532276913638e-03
3.779795533348806202e+01,2.889911498046267638e-03
3.789806966669857502e+01,2.892815224085305836e-03
3.799763766664545983e+01,2.895696672139650915e-03
3.809781433339230716e+01,2.898589284842055351e-03
3.819795633340254426e+01,2.901474453995265233e-03
3.829800566658377647e+01,2.904350544473000527e-03
3.839803566655609757e+01,2.907219698725367445e-03
3.849774500005878508e+01,2.910073329563277710e-03
3.859781900013331324e+01,2.912931070215999362e-03
3.869793933327309787e+01,2.915783814857612725e-03
3.879803733329754323e+01,2.918629628327193935e-03
3.889781600004062057e+01,2.921460122511215438e-03
3.899798200000077486e+01,2.924295361140670686e-03
3.909779700008220971e+01,2.927114465498518395e-03
3.919799600006081164e+01,2.929938214940316400e-03
3.929805500002112240e+01,2.932751843361681206e-03
3.939764199999626726e+01,2.935546094986390096e-03
3.949767300009261817e+01,2.938346697378363490e-03
3.959786799992434680e+01,2.941145779131637723e-03
3.969806633330881596e+01,2.943938860186827260e-03
3.979785600001923740e+01,2.946714516268171893e-03
