Time [s],Voltage [V]
0.000000000000000000e+00,2.202532456792568932e-04
9.769066667649894953e-02,2.386245341808857206e-04
1.981630000518634915e-01,2.566172822902256997e-04
2.981790000339969993e-01,2.741470940635369917e-04
3.977310000918805599e-01,2.912944348011051610e-04
4.978633333230391145e-01,3.083460581472010622e-04
5.979406667174771428e-01,3.251891762805687348e-04
6.979573332937434316e-01,3.418138873153921163e-04
7.979156667133793235e-01,3.582243934041688107e-04
8.979750000871717930e-01,3.744925345156145278e-04
9.978346667485311627e-01,3.905561921069974299e-04
1.097807000041939318e+00,4.064651007257802070e-04
1.197835666709579527e+00,4.222098573667642770e-04
1.297842333326116204e+00,4.378253304889625618e-04
1.397867000079713762e+00,4.532910011287997250e-04
1.497831999906338751e+00,4.685939530547673796e-04
1.597713333321735263e+00,4.837308423521509545e-04
1.697713333414867520e+00,4.987773463499403171e-04
1.797736000036820769e+00,5.136933858179141459e-04
1.898149333312176168e+00,5.285319447626772148e-04
1.997679666616022587e+00,5.431058033949908315e-04
2.098103333264589310e+00,5.577062368202046578e-04
2.197910333285108209e+00,5.720958654704685160e-04
2.297947333310730755e+00,5.863966920977392409e-04
2.397993999999016523e+00,6.005767803927811220e-04
2.497934333281591535e+00,6.146349014165003325e-04
2.597928666626103222e+00,6.285893174743963085e-04
2.697974000009708107e+00,6.424412041254894037e-04
2.797900666599161923e+00,6.561692615387008107e-04
2.898094666656106710e+00,6.698290346940383730e-04
2.998071666574105620e+00,6.833563069372194368e-04
3.097722666687332094e+00,6.967393143573634212e-04
3.197723666555248201e+00,7.100709749568932501e-04
3.297825666610151529e+00,7.233196036306888815e-04
3.397699666558764875e+00,7.364440118694141413e-04
3.497720666695386171e+00,7.494957667874795190e-04
3.598189999931491911e+00,7.625155597708059476e-04
3.698061999981291592e+00,7.753631312642243669e-04
3.798025666736066341e+00,7.881340442782109939e-04
3.897914333385415375e+00,8.008089600918307654e-04
3.997851666645146906e+00,8.134053959343751387e-04
4.097951000090688467e+00,8.259391654436645542e-04
4.197945666732266545e+00,8.383786027948854878e-04
4.297971333377063274e+00,8.507424710635525661e-04
4.397952000028453767e+00,8.630231873857252978e-04
4.497904333402402699e+00,8.752136807582465514e-04
4.597905999980866909e+00,8.873318154779544697e-04
4.697787333279848099e+00,8.993587996810094038e-04
4.798039333429187536e+00,9.113548175904246859e-04
4.897993333288468421e+00,9.232411212146154856e-04
4.997879000031389296e+00,9.350467714964596317e-04
5.097919666673988104e+00,9.467994144298395257e-04
5.197885333327576518e+00,9.584732882919050475e-04
5.297850999864749610e+00,9.700706660572095633e-04
5.398111000075004995e+00,9.816314534157157337e-04
5.498097333242185414e+00,9.930914270306649347e-04
5.597940666717477143e+00,1.004467013604582511e-03
5.697956333286128938e+00,1.015795129172783907e-03
5.797952333348803222e+00,1.027054892905334641e-03
5.898047000053338706e+00,1.038260572630447017e-03
5.997903666691854596e+00,1.049375632243881992e-03
6.097975666634738445e+00,1.060446317904785657e-03
6.197862333268858492e+00,1.071432410355041597e-03
6.297771999961696565e+00,1.082357973551292688e-03
6.397774333250708878e+00,1.093231318855071316e-03
6.497711333446204662e+00,1.104036043536149375e-03
6.598109666723757982e+00,1.114829531032425838e-03
6.698027333361096680e+00,1.125511332478476654e-03
6.797959999996237457e+00,1.136135659796879381e-03
6.897893000044859946e+00,1.146699343963532292e-03
6.997891666716895998e+00,1.157211452952393044e-03
7.097795333247631788e+00,1.167655918779225959e-03
7.197774666710756719e+00,1.178051304070724167e-03
7.297732333303429186e+00,1.188388145714429096e-03
7.397694999934174120e+00,1.198669918964775233e-03
7.497728000045754015e+00,1.208903985295466631e-03
7.597759333322755992e+00,1.219083626782317816e-03
7.697880333405919373e+00,1.229218772432265523e-03
7.797823999891988933e+00,1.239283168792197978e-03
7.897907666629180312e+00,1.249309506494200627e-03
7.998036000062711537e+00,1.259288796944751411e-03
8.098100666655227542e+00,1.269210963802099327e-03
8.198053666739724576e+00,1.279072085278671733e-03
8.298004666576161981e+00,1.288883769525118322e-03
8.398135000024922192e+00,1.298664391605734107e-03
8.497971333446912467e+00,1.308360967118341739e-03
8.598099999944679439e+00,1.318036752708907867e-03
8.698033666587434709e+00,1.327645521683967636e-03
8.798063333379104733e+00,1.337215917769180203e-03
8.898013333324342966e+00,1.346731713553241984e-03
8.998046000138856471e+00,1.356208953974486452e-03
9.098017333308234811e+00,1.365634572931036716e-03
9.198062333278357983e+00,1.375021882446785491e-03
9.298026666743680835e+00,1.384356997635530825e-03
9.397935000015422702e+00,1.393642904166253428e-03
9.498091999907046556e+00,1.402908384758681098e-03
9.598053333349525928e+00,1.412112891791534154e-03
9.698163333232514560e+00,1.421288755040150779e-03
9.798022666713222861e+00,1.430400027946656782e-03
9.897954666637815535e+00,1.439476913597184313e-03
9.998010333278216422e+00,1.448524515241236474e-03
1.009812166658230126e+01,1.457526420453440080e-03
1.019811666652094573e+01,1.466475893375064751e-03
1.029775966680608690e+01,1.475353170964959632e-03
1.039775633334647864e+01,1.484221588929393511e-03
1.049780966679099947e+01,1.493055028265664408e-03
1.059773566666990519e+01,1.501837755801957268e-03
1.069775366678368300e+01,1.510589539979217272e-03
1.079804466664791107e+01,1.519326477023451652e-03
1.089806133334059268e+01,1.528001357439001760e-03
1.099809466663282365e+01,1.536640038906808906e-03
1.109802633337676525e+01,1.545232819743997191e-03
1.119787499995436519e+01,1.553781876141771719e-03
1.129783133335877210e+01,1.562303988199295092e-03
1.139777133346069604e+01,1.570789003176417849e-03
1.149814733327366412e+01,1.579275572165082017e-03
1.159798166656401008e+01,1.587681561335271743e-03
1.169786033325362951e+01,1.596043380465894147e-03
1.179787733335979283e+01,1.604379463276386399e-03
1.189774699998088181e+01,1.612667129421668181e-03
1.199772933335043490e+01,1.620928286608797238e-03
1.209805733337998390e+01,1.629182254769784548e-03
1.219809066667221487e+01,1.637376640802568409e-03
1.229815299995243549e+01,1.645538413125288094e-03
1.239813166670501232e+01,1.653658723862986169e-03
1.249809233332052827e+01,1.661743272313391702e-03
1.259806400001980364e+01,1.669794720490657639e-03
1.269795933330897242e+01,1.677806380625714543e-03
1.279793099989183247e+01,1.685790809444415086e-03
1.289782099996227771e+01,1.693735703082000421e-03
1.299781966663431376e+01,1.701656499479843512e-03
1.309783000010065734e+01,1.709545769447383661e-03
1.319776800007093698e+01,1.717397229086940237e-03
1.329777633340563625e+01,1.725220087089115182e-03
1.339773700013756752e+01,1.733007119310705797e-03
1.349780100001953542e+01,1.740770504917244724e-03
1.359781566681340337e+01,1.748498660475902508e-03
1.369777166657149792e+01,1.756191201986595247e-03
1.379783499997574836e+01,1.763861168799808581e-03
1.389769366674590856e+01,1.771484976599546710e-03
1.399773733341135085e+01,1.779092670336229146e-03
1.409807033336255699e+01,1.786692256828805499e-03
1.419796566676814109e+01,1.794229023977738030e-03
1.429783866670913994e+01,1.801734797955253237e-03
1.439776199997868389e+01,1.809215313291129019e-03
1.449812166660558432e+01,1.816699542547807206e-03
1.459782366664148867e+01,1.824106283065060142e-03
1.469789933331776410e+01,1.831512559437755219e-03
1.479785266669932753e+01,1.838881844141863290e-03
1.489781533333007246e+01,1.846217308827394470e-03
1.499811700009740889e+01,1.853548299833621040e-03
1.509806133341044188e+01,1.860824635824177668e-03
1.519769100006669760e+01,1.868049915874023205e-03
1.529774466669186950e+01,1.875277868960857110e-03
1.539775600004941225e+01,1.882474852664674410e-03
1.549784433329477906e+01,1.889649646984445375e-03
1.559783066669479012e+01,1.896789637595625889e-03
1.569790899998042732e+01,1.903908889121621543e-03
1.579777133325114846e+01,1.910985748475288720e-03
1.589778899995144457e+01,1.918046761853402053e-03
1.599772066669538617e+01,1.925075070145667970e-03
1.609808500006329268e+01,1.932107220980773792e-03
1.619793433335144073e+01,1.939077054323314932e-03
1.629785400000400841e+01,1.946025810025498598e-03
1.639775599993299693e+01,1.952947553807727775e-03
1.649779500009026378e+01,1.959851038157075891e-03
1.659779266663827002e+01,1.966725658172095714e-03
1.669784433336462826e+01,1.973578313962930878e-03
1.679785333329346031e+01,1.980402562298883701e-03
1.689833900006487966e+01,1.987233857991393786e-03
1.699794733338057995e+01,1.993980485683783353e-03
1.709807533328421414e+01,2.000737383174374436e-03
1.719769666658248752e+01,2.007435466539210598e-03
1.729774266667664051e+01,2.014137566317677694e-03
1.739771866658702493e+01,2.020810595763536215e-03
1.749799233337398618e+01,2.027479194708510166e-03
1.759798500011675060e+01,2.034105055674294629e-03
1.769796833337750286e+01,2.040706466883255351e-03
1.779796433320734650e+01,2.047285061516382516e-03
1.789788633328862488e+01,2.053835341260363233e-03
1.799793366657104343e+01,2.060370536997007795e-03
1.809792566660325974e+01,2.066875643988452110e-03
1.819792233337648213e+01,2.073357177495765112e-03
1.829784399992786348e+01,2.079810422293552202e-03
1.839802633330691606e+01,2.086257134158145746e-03
1.849816600012127310e+01,2.092677860240620743e-03
1.859772866661660373e+01,2.099038697025270087e-03
1.869780033337883651e+01,2.105409192215533781e-03
1.879781200003344566e+01,2.111753111923565102e-03
1.889778933336492628e+01,2.118072258759056640e-03
1.899768166674766690e+01,2.124363612777573681e-03
1.909782600007019937e+01,2.130648485004419616e-03
1.919803466671146452e+01,2.136915134858856802e-03
1.929811966663692147e+01,2.143151968213663581e-03
1.939789166662376374e+01,2.149347472986090635e-03
1.949777700006961823e+01,2.155528330358019457e-03
1.959809433331247419e+01,2.161714224301343901e-03
1.969811900006607175e+01,2.167860567069598062e-03
1.979777666670270264e+01,2.173963144988888194e-03
1.989806899998802692e+01,2.180083352650204372e-03
1.999771600007079542e+01,2.186143224736433223e-03
2.009811200003605336e+01,2.192227665721337582e-03
2.019819266675040126e+01,2.198272179205919448e-03
2.029767966666258872e+01,2.204260379030987139e-03
2.039786466665100306e+01,2.210270121657903659e-03
2.049781733332201838e+01,2.216245599104961321e-03
2.059773333324119449e+01,2.222198733096520003e-03
2.069813333323691040e+01,2.228160553410280138e-03
2.079768600000534207e+01,2.234052255343847888e-03
2.089801733335480094e+01,2.239970231804690008e-03
2.099797133344691247e+01,2.245846320462084947e-03
2.109784733329433948e+01,2.251698394627851558e-03
2.119778166664764285e+01,2.257534590300110718e-03
2.129810699995141476e+01,2.263369494953830843e-03
2.139798766665626317e+01,2.269158457706511867e-03
2.149793433339800686e+01,2.274931802517829536e-03
2.159775366657413542e+01,2.280678501392601441e-03
2.169808966666460037e+01,2.286435639992184972e-03
2.179819600004702806e+01,2.292160434804427389e-03
2.189805466658435762e+01,2.297852115690394732e-03
2.199795766663737595e+01,2.303527505841217096e-03
2.209806666662916541e+01,2.309195841063945917e-03
2.219796799996402115e+01,2.314833821590569531e-03
2.229787200002465397e+01,2.320453497030224368e-03
2.239784200000576675e+01,2.326058533078573676e-03
2.249780033330898732e+01,2.331644682455246732e-03
2.259797133342362940e+01,2.337224549677728407e-03
2.269785266672261059e+01,2.342770296263335574e-03
2.279791333328466862e+01,2.348308114951262390e-03
2.289791033347137272e+01,2.353824648405453916e-03
2.299804533331189305e+01,2.359331124839811333e-03
2.309796333336271346e+01,2.364808165893010194e-03
2.319778400007635355e+01,2.370262535622039493e-03
2.329772200004663318e+01,2.375706080598193916e-03
2.339775766653474420e+01,2.381137796275945538e-03
2.349814366665668786e+01,2.386571409839165735e-03
2.359802666667383164e+01,2.391960894277617503e-03
2.369791666662786156e+01,2.397334016149245232e-03
2.379779099998995662e+01,2.402689680342644154e-03
2.389788533328101039e+01,2.408040595652321918e-03
2.399786300002597272e+01,2.413368861083778870e-03
2.409785966668277979e+01,2.418681853369385789e-03
2.419776866666506976e+01,2.423974044079086482e-03
2.429785199998877943e+01,2.429259412853048642e-03
2.439809166663326323e+01,2.434537052457272539e-03
2.449775400001090020e+01,2.439759798067315470e-03
2.459772800013888627e+01,2.444981337441055284e-03
2.469777766661718488e+01,2.450190328754963450e-03
2.479813966667279601e+01,2.455399093223548275e-03
2.489812400005757809e+01,2.460571931149355476e-03
2.499808199994731694e+01,2.465727212975436788e-03
2.509803066658787429e+01,2.470865918812042115e-03
2.519817633344791830e+01,2.475998706607855215e-03
2.529768966662231833e+01,2.481083268822091570e-03
2.539799433329608291e+01,2.486192403722393973e-03
2.549790399998892099e+01,2.491265684753366308e-03
2.559793666657060385e+01,2.496329574375823201e-03
2.569783500011544675e+01,2.501371143059337009e-03
2.579772366676479578e+01,2.506396810408580665e-03
2.589806433324702084e+01,2.511429796847143743e-03
2.599803533335216343e+01,2.516428964431335815e-03
2.609816366655286402e+01,2.521420810156680369e-03
2.619768099999055266e+01,2.526367226285738260e-03
2.629773099988233298e+01,2.531325169905212363e-03
2.639777866681106389e+01,2.536268105104843608e-03
2.649781800003256649e+01,2.541195832708756114e-03
2.659786266670562327e+01,2.546109121513958143e-03
2.669788866664748639e+01,2.551006890672490382e-03
2.679790033341851085e+01,2.555889454449948583e-03
2.689796133339405060e+01,2.560760008336229743e-03
2.699787600012496114e+01,2.565609143754232855e-03
2.709780300012789667e+01,2.570444684599619903e-03
2.719773333333432674e+01,2.575266286600666910e-03
2.729816733335610479e+01,2.580098078653829397e-03
2.739803866669535637e+01,2.584888867696516664e-03
2.749811399995815009e+01,2.589675600426195358e-03
2.759807200008071959e+01,2.594442983824555432e-03
2.769801000005099922e+01,2.599188927396296582e-03
2.779811833333224058e+01,2.603927806685145570e-03
2.789804366661701351e+01,2.608643835465248965e-03
2.799795666662976146e+01,2.613345182862492067e-03
2.809779633325524628e+01,2.618029069364234424e-03
2.819773266674019396e+01,2.622703538228966270e-03
2.829777766671031713e+01,2.627369180659639217e-03
2.839780566666740924e+01,2.632020190042876941e-03
2.849771166662685573e+01,2.636651785893831187e-03
2.859783666674047709e+01,2.641279829884504715e-03
2.869794866675511003e+01,2.645893629209562781e-03
2.879791533341631293e+01,2.650487190482626182e-03
2.889782133337575942e+01,2.655064518899257278e-03
2.899774000002071261e+01,2.659629056811528731e-03
2.909774400002788752e+01,2.664184177041881152e-03
2.919768033328000456e+01,2.668722979867511023e-03
2.929814933345187455e+01,2.673272711640601890e-03
2.939812366664409637e+01,2.677786915301195222e-03
2.949773133324924856e+01,2.682271612373797465e-03
2.959815633331891149e+01,2.686780096036754661e-03
2.969775066664442420e+01,2.691238456084638683e-03
2.979771966661792248e+01,2.695700810403339580e-03
2.989819933334365487e+01,2.700173133037857796e-03
2.999771166674327105e+01,2.704589798442094423e-03
3.009808633336797357e+01,2.709032106141469852e-03
3.019771399989258498e+01,2.713428882286234890e-03
3.029812366655096412e+01,2.717847671638119050e-03
3.039792633336037397e+01,2.722227387841453204e-03
3.049785966670606285e+01,2.726600563769341571e-03
3.059803933335933834e+01,2.730972264697657369e-03
3.069786033337004483e+01,2.735316182690468445e-03
3.079784333333373070e+01,2.739655084365336026e-03
3.089775533345527947e+01,2.743973920759310622e-03
3.099775466660503298e+01,2.748283357897956733e-03
3.109775266679935157e+01,2.752580329310555518e-03
3.119768433331046253e+01,2.756862111206614344e-03
3.129812233347911388e+01,2.761153216329807064e-03
3.139805633341893554e+01,2.765410535758997760e-03
3.149797499994747341e+01,2.769655039544075253e-03
3.159785800008103251e+01,2.773885929894654139e-03
3.169773299992084503e+01,2.778104443244494483e-03
3.179811833321582526e+01,2.782332439093551223e-03
3.189810166670940816e+01,2.786531529511287325e-03
3.199814766657073051e+01,2.790721347354366104e-03
3.209808500006329268e+01,2.794894782363946655e-03
3.219773500005248934e+01,2.799044499977160032e-03
3.229817966662812978e+01,2.803215525254920248e-03
3.239800266653764993e+01,2.807349070451008091e-03
3.249792566674295813e+01,2.811475166993820593e-03
3.259790566668380052e+01,2.815592068664873708e-03
3.269776933337561786e+01,2.819692705007937825e-03
3.279770633333828300e+01,2.823784928261416707e-03
3.289777266664896160e+01,2.827871053568822152e-03
3.299784933333285153e+01,2.831946254712730190e-03
3.309768566675484180e+01,2.836000420119402354e-03
3.319815566670149565e+01,2.840069031916447537e-03
3.329772799997590482e+01,2.844090178510331156e-03
3.339778233331162483e+01,2.848119702953704445e-03
3.349783033330459148e+01,2.852137916094361642e-03
3.359799733338877559e+01,2.856149890012837401e-03
3.369780766672920436e+01,2.860136668772222165e-03
3.379792166664265096e+01,2.864124693989838696e-03
3.389785800001118332e+01,2.868094828053905677e-03
3.399794966657646000e+01,2.872060360443972477e-03
3.409807266655843705e+01,2.876014229511760813e-03
3.419796200003474951e+01,2.879947612788904578e-03
3.429797399998642504e+01,2.883874937298845122e-03
3.439789666677825153e+01,2.887787914635514628e-03
3.449784333328716457e+01,2.891691035214798144e-03
3.459790100005920976e+01,2.895587716152034190e-03
3.469794166670180857e+01,2.899472998555816319e-03
3.479795966658275574e+01,2.903346709620240398e-03
3.489789566677063704e+01,2.907206608669206035e-03
3.499776199995540082e+01,2.911053236385365960e-03
3.509773266676347703e+01,2.914893329267582382e-03
3.519820066681131721e+01,2.918741927834985362e-03
3.529768533329479396e+01,2.922542428484758720e-03
3.539811966673005372e+01,2.926368720053182382e-03
3.549813266657292843e+01,2.930168527025091459e-03
3.559797599993180484e+01,2.933951541830410580e-03
3.569790500006638467e+01,2.937727490086961685e-03
3.579776599991600960e+01,2.941490600324489502e-03
3.589772633335087448e+01,2.945247210973331482e-03
3.599777433334384114e+01,2.948996892149781304e-03
3.609775366680696607e+01,2.952733818791748299e-03
3.619811033341102302e+01,2.956474650804335504e-03
3.629773933335673064e+01,2.960178288519914498e-03
3.639781066658906639e+01,2.963888305264673374e-03
3.649784799991175532e+01,2.967587015816979066e-03
3.659775199997238815e+01,2.971270808210830540e-03
3.669770333333872259e+01,2.974946392337605560e-03
3.679822466673795134e+01,2.978632931497701176e-03
3.689794599998276681e+01,2.982280250970966579e-03
3.699789699993561953e+01,2.985926129999958573e-03
3.709780766663607210e+01,2.989560725915982754e-03
3.719783533341251314e+01,2.993189784757723480e-03
3.729770799994003028e+01,2.996803040141770690e-03
3.739809266652446240e+01,3.000424907950587344e-03
3.749806100002024323e+01,3.004021984562857406e-03
3.759802900010254234e+01,3.007609329204147947e-03
3.769792966661043465e+01,3.011184576634308961e-03
3.779791066667530686e+01,3.014753038540827004e-03
3.789783633348997682e+01,3.018309897655872646e-03
3.799813633342273533e+01,3.021870430146930513e-03
3.809807533328421414e+01,3.025408558494702572e-03
3.819793499994557351e+01,3.028934345265503741e-03
3.829791899991687387e+01,3.032455002038319906e-03
3.839797166665084660e+01,3.035968567883422144e-03
3.849787533329799771e+01,3.039467436794880337e-03
3.859768633334897459e+01,3.042953641996048487e-03
3.869777233328204602e+01,3.046440025248761934e-03
3.879807166662067175e+01,3.049924394901741814e-03
3.889796066668350250e+01,3.053385137783741488e-03
3.899801199999637902e+01,3.056842154013379026e-03
3.909791866666637361e+01,3.060284857786997603e-03
3.919786733330693096e+01,3.063719719755497728e-03
3.929768466658424586e+01,3.067140819049922820e-03
3.939775533333886415e+01,3.070561345854350664e-03
3.949774000002071261e+01,3.073969701036477313e-03
3.959771666675806046e+01,3.077368579071880321e-03
3.969802199990954250e+01,3.080769403480584576e-03
3.979802000010386109e+01,3.084150629820986075e-03
